Date,Open,High,Low,Close,Adj Close,Volume
2012-01-02,1.305,1.35,1.305,1.35,1.35,16000.0
2012-01-03,1.375,1.375,1.35,1.35,1.35,8800.0
2012-01-04,1.35,1.35,1.35,1.35,1.35,0.0
2012-01-05,1.35,1.35,1.35,1.35,1.35,0.0
2012-01-08,1.35,1.35,1.3,1.3,1.3,10664.0
2012-01-09,1.3,1.3,1.3,1.3,1.3,0.0
2012-01-10,1.3,1.3,1.3,1.3,1.3,0.0
2012-01-11,1.3,1.3,1.3,1.3,1.3,0.0
2012-01-12,1.3,1.3,1.3,1.3,1.3,0.0
2012-01-15,1.3,1.3,1.3,1.3,1.3,0.0
2012-01-16,1.3,1.3,1.3,1.3,1.3,0.0
2012-01-17,1.3,1.3,1.3,1.3,1.3,0.0
2012-01-18,1.3,1.3,1.3,1.3,1.3,1530.0
2012-01-19,1.305,1.305,1.305,1.305,1.305,3252.0
2012-01-22,1.305,1.305,1.305,1.305,1.305,0.0
2012-01-23,1.305,1.305,1.305,1.305,1.305,0.0
2012-01-24,1.25,1.25,1.25,1.25,1.25,45330.0
2012-01-26,1.28,1.28,1.25,1.25,1.25,14998.0
2012-01-29,,,,,,
2012-01-30,1.25,1.25,1.25,1.25,1.25,0.0
2012-01-31,1.3,1.3,1.3,1.3,1.3,19870.0
2012-02-01,1.3,1.3,1.3,1.3,1.3,0.0
2012-02-02,1.375,1.375,1.375,1.375,1.375,10000.0
2012-02-05,1.35,1.35,1.35,1.35,1.35,7000.0
2012-02-06,1.375,1.375,1.375,1.375,1.375,2000.0
2012-02-07,1.375,1.375,1.375,1.375,1.375,0.0
2012-02-08,1.375,1.375,1.375,1.375,1.375,0.0
2012-02-09,1.375,1.375,1.375,1.375,1.375,0.0
2012-02-12,1.375,1.375,1.375,1.375,1.375,0.0
2012-02-13,1.375,1.375,1.375,1.375,1.375,0.0
2012-02-14,1.375,1.375,1.375,1.375,1.375,0.0
2012-02-15,1.375,1.375,1.375,1.375,1.375,0.0
2012-02-16,1.375,1.375,1.375,1.375,1.375,0.0
2012-02-19,1.375,1.375,1.375,1.375,1.375,0.0
2012-02-20,1.375,1.375,1.375,1.375,1.375,0.0
2012-02-21,1.375,1.375,1.375,1.375,1.375,226.0
2012-02-22,1.375,1.375,1.375,1.375,1.375,0.0
2012-02-23,1.375,1.4,1.375,1.4,1.4,15380.0
2012-02-26,1.4,1.4,1.4,1.4,1.4,0.0
2012-02-27,1.375,1.375,1.35,1.35,1.35,10000.0
2012-02-28,1.35,1.35,1.35,1.35,1.35,20000.0
2012-02-29,1.35,1.35,1.35,1.35,1.35,0.0
2012-03-01,1.35,1.35,1.35,1.35,1.35,0.0
2012-03-04,1.35,1.35,1.35,1.35,1.35,5108.0
2012-03-05,1.35,1.35,1.35,1.35,1.35,0.0
2012-03-06,1.35,1.35,1.35,1.35,1.35,0.0
2012-03-07,1.35,1.425,1.35,1.425,1.425,25004.0
2012-03-08,1.425,1.425,1.425,1.425,1.425,0.0
2012-03-11,1.425,1.425,1.425,1.425,1.425,0.0
2012-03-12,1.425,1.425,1.425,1.425,1.425,1032500.0
2012-03-13,1.425,1.425,1.425,1.425,1.425,0.0
2012-03-14,1.425,1.425,1.425,1.425,1.425,0.0
2012-03-15,1.425,1.425,1.425,1.425,1.425,0.0
2012-03-18,1.425,1.425,1.425,1.425,1.425,0.0
2012-03-19,1.425,1.425,1.425,1.425,1.425,0.0
2012-03-20,1.4,1.4,1.35,1.35,1.35,55200.0
2012-03-21,1.395,1.4,1.395,1.4,1.4,7970.0
2012-03-22,1.355,1.355,1.35,1.35,1.35,67442.0
2012-03-25,1.35,1.35,1.33,1.33,1.33,74536.0
2012-03-26,1.34,1.375,1.34,1.375,1.375,20000.0
2012-03-27,1.33,1.375,1.33,1.335,1.335,10544.0
2012-03-28,1.375,1.395,1.35,1.395,1.395,125958.0
2012-03-29,1.395,1.395,1.395,1.395,1.395,15388.0
2012-04-02,1.395,1.395,1.375,1.39,1.39,46320.0
2012-04-03,1.35,1.35,1.35,1.35,1.35,19000.0
2012-04-04,1.385,1.385,1.35,1.35,1.35,7000.0
2012-04-05,1.35,1.35,1.35,1.35,1.35,0.0
2012-04-10,1.35,1.35,1.35,1.35,1.35,20000.0
2012-04-11,1.275,1.35,1.275,1.35,1.35,11500.0
2012-04-12,1.35,1.35,1.35,1.35,1.35,0.0
2012-04-13,1.35,1.35,1.35,1.35,1.35,0.0
2012-04-16,1.35,1.35,1.35,1.35,1.35,0.0
2012-04-17,1.295,1.3,1.295,1.3,1.3,44400.0
2012-04-18,1.3,1.3,1.3,1.3,1.3,0.0
2012-04-19,1.255,1.3,1.255,1.3,1.3,150446.0
2012-04-20,2.55,2.6,2.55,2.6,2.6,55192.0
2012-04-23,2.65,2.7,2.65,2.7,2.7,25226.0
2012-04-24,2.7,2.7,2.7,2.7,2.7,1700.0
2012-04-26,2.7,2.7,2.7,2.7,2.7,0.0
2012-04-27,2.75,2.79,2.75,2.79,2.79,12001.0
2012-04-30,2.8,2.8,2.8,2.8,2.8,3185.0
2012-05-01,2.79,2.8,2.79,2.8,2.8,28857.0
2012-05-02,2.85,2.85,2.8,2.8,2.8,12900.0
2012-05-03,2.82,2.82,2.79,2.8,2.8,60730.0
2012-05-04,2.8,2.8,2.75,2.8,2.8,23482.0
2012-05-07,2.8,2.8,2.75,2.75,2.75,12952.0
2012-05-08,2.75,2.75,2.75,2.75,2.75,0.0
2012-05-09,2.75,2.75,2.75,2.75,2.75,0.0
2012-05-10,2.75,2.75,2.75,2.75,2.75,0.0
2012-05-11,2.75,2.75,2.75,2.75,2.75,0.0
2012-05-14,2.75,2.75,2.75,2.75,2.75,0.0
2012-05-15,2.75,2.75,2.75,2.75,2.75,0.0
2012-05-16,2.75,2.75,2.75,2.75,2.75,0.0
2012-05-17,2.75,2.75,2.75,2.75,2.75,0.0
2012-05-18,2.75,2.75,2.75,2.75,2.75,0.0
2012-05-21,2.75,2.75,2.75,2.75,2.75,0.0
2012-05-22,2.75,2.75,2.75,2.75,2.75,0.0
2012-05-23,2.75,2.75,2.75,2.75,2.75,0.0
2012-05-24,2.75,2.75,2.75,2.75,2.75,0.0
2012-05-25,1.25,1.25,1.25,1.25,1.25,7500.0
2012-05-28,1.45,1.45,1.35,1.35,1.35,85000.0
2012-05-29,1.45,1.45,1.35,1.35,1.35,229714.0
2012-05-30,1.445,1.45,1.445,1.45,1.45,15587.0
2012-05-31,1.48,1.48,1.48,1.48,1.48,6741.0
2012-06-01,1.48,1.5,1.48,1.5,1.5,74051.0
2012-06-04,1.5,1.5,1.5,1.5,1.5,0.0
2012-06-05,1.5,1.5,1.5,1.5,1.5,0.0
2012-06-06,1.5,1.5,1.5,1.5,1.5,0.0
2012-06-07,1.5,1.5,1.5,1.5,1.5,0.0
2012-06-08,1.5,1.5,1.5,1.5,1.5,0.0
2012-06-12,1.45,1.45,1.45,1.45,1.45,1000.0
2012-06-13,1.45,1.45,1.45,1.45,1.45,0.0
2012-06-14,1.45,1.45,1.45,1.45,1.45,0.0
2012-06-15,1.45,1.45,1.45,1.45,1.45,813.0
2012-06-18,1.35,1.35,1.35,1.35,1.35,2600.0
2012-06-19,1.35,1.35,1.35,1.35,1.35,10000.0
2012-06-20,1.35,1.35,1.35,1.35,1.35,5400.0
2012-06-21,1.35,1.35,1.35,1.35,1.35,0.0
2012-06-22,1.31,1.31,1.25,1.25,1.25,25500.0
2012-06-25,1.25,1.25,1.25,1.25,1.25,0.0
2012-06-26,1.22,1.26,1.22,1.26,1.26,25187.0
2012-06-27,1.26,1.26,1.26,1.26,1.26,0.0
2012-06-28,1.26,1.26,1.25,1.26,1.26,49600.0
2012-06-29,1.26,1.26,1.26,1.26,1.26,25000.0
2012-07-02,1.26,1.26,1.26,1.26,1.26,5368.0
2012-07-03,1.25,1.25,1.25,1.25,1.25,5032.0
2012-07-04,1.325,1.325,1.325,1.325,1.325,320000.0
2012-07-05,1.325,1.325,1.325,1.325,1.325,0.0
2012-07-06,1.325,1.325,1.325,1.325,1.325,0.0
2012-07-09,1.25,1.25,1.25,1.25,1.25,10000.0
2012-07-10,1.255,1.255,1.255,1.255,1.255,3000.0
2012-07-11,1.255,1.255,1.22,1.22,1.22,9000.0
2012-07-12,1.22,1.22,1.22,1.22,1.22,0.0
2012-07-13,1.22,1.22,1.22,1.22,1.22,0.0
2012-07-16,1.22,1.22,1.22,1.22,1.22,0.0
2012-07-17,1.25,1.25,1.25,1.25,1.25,32000.0
2012-07-18,1.25,1.25,1.25,1.25,1.25,0.0
2012-07-19,1.25,1.25,1.25,1.25,1.25,0.0
2012-07-20,1.25,1.25,1.25,1.25,1.25,0.0
2012-07-23,1.25,1.25,1.25,1.25,1.25,800.0
2012-07-24,1.22,1.22,1.22,1.22,1.22,2872.0
2012-07-25,1.22,1.22,1.22,1.22,1.22,0.0
2012-07-26,1.22,1.22,1.22,1.22,1.22,0.0
2012-07-27,1.22,1.22,1.22,1.22,1.22,0.0
2012-07-30,1.22,1.22,1.22,1.22,1.22,0.0
2012-07-31,1.22,1.22,1.22,1.22,1.22,0.0
2012-08-01,1.22,1.22,1.22,1.22,1.22,0.0
2012-08-02,1.2,1.2,1.19,1.19,1.19,10000.0
2012-08-03,1.19,1.19,1.19,1.19,1.19,0.0
2012-08-06,1.19,1.19,1.19,1.19,1.19,0.0
2012-08-07,1.19,1.19,1.19,1.19,1.19,0.0
2012-08-08,1.19,1.19,1.19,1.19,1.19,0.0
2012-08-09,1.18,1.2,1.18,1.2,1.2,6494.0
2012-08-10,1.2,1.2,1.2,1.2,1.2,0.0
2012-08-13,1.25,1.25,1.25,1.25,1.25,1128.0
2012-08-14,1.25,1.25,1.25,1.25,1.25,0.0
2012-08-15,1.25,1.25,1.25,1.25,1.25,0.0
2012-08-16,1.25,1.25,1.25,1.25,1.25,20001.0
2012-08-17,1.25,1.3,1.2,1.3,1.3,27972.0
2012-08-20,1.3,1.3,1.3,1.3,1.3,0.0
2012-08-21,1.3,1.3,1.3,1.3,1.3,0.0
2012-08-22,1.3,1.3,1.3,1.3,1.3,0.0
2012-08-23,1.3,1.3,1.3,1.3,1.3,10000.0
2012-08-24,1.3,1.3,1.3,1.3,1.3,0.0
2012-08-27,1.3,1.3,1.3,1.3,1.3,0.0
2012-08-28,1.3,1.3,1.3,1.3,1.3,385.0
2012-08-29,1.24,1.24,1.23,1.23,1.23,10000.0
2012-08-30,1.23,1.23,1.23,1.23,1.23,0.0
2012-08-31,1.23,1.23,1.2,1.2,1.2,10000.0
2012-09-03,1.2,1.2,1.2,1.2,1.2,6222.0
2012-09-04,1.2,1.2,1.2,1.2,1.2,8000.0
2012-09-05,1.25,1.25,1.25,1.25,1.25,2000.0
2012-09-06,1.27,1.27,1.27,1.27,1.27,10000.0
2012-09-07,1.27,1.27,1.27,1.27,1.27,0.0
2012-09-10,1.27,1.27,1.27,1.27,1.27,0.0
2012-09-11,1.27,1.27,1.27,1.27,1.27,0.0
2012-09-12,1.27,1.27,1.27,1.27,1.27,100.0
2012-09-13,1.26,1.28,1.25,1.25,1.25,23417.0
2012-09-14,1.25,1.25,1.25,1.25,1.25,0.0
2012-09-17,1.25,1.25,1.25,1.25,1.25,0.0
2012-09-18,1.28,1.28,1.28,1.28,1.28,3000.0
2012-09-19,1.28,1.28,1.28,1.28,1.28,0.0
2012-09-20,1.28,1.28,1.28,1.28,1.28,2475.0
2012-09-21,1.19,1.19,1.19,1.19,1.19,1218.0
2012-09-24,1.19,1.19,1.19,1.19,1.19,897.0
2012-09-25,1.19,1.19,1.19,1.19,1.19,0.0
2012-09-26,1.2,1.2,1.19,1.2,1.2,9400.0
2012-09-27,1.2,1.2,1.2,1.2,1.2,0.0
2012-09-28,1.2,1.2,1.2,1.2,1.2,800.0
2012-10-01,1.2,1.2,1.2,1.2,1.2,0.0
2012-10-02,1.2,1.2,1.2,1.2,1.2,3900.0
2012-10-03,1.2,1.2,1.2,1.2,1.2,0.0
2012-10-04,1.2,1.2,1.17,1.17,1.17,15400.0
2012-10-05,1.2,1.2,1.2,1.2,1.2,10868.0
2012-10-07,1.2,1.2,1.2,1.2,1.2,0.0
2012-10-08,1.2,1.2,1.2,1.2,1.2,0.0
2012-10-09,1.2,1.2,1.2,1.2,1.2,0.0
2012-10-10,1.2,1.2,1.2,1.2,1.2,0.0
2012-10-11,1.2,1.2,1.2,1.2,1.2,0.0
2012-10-14,1.28,1.28,1.25,1.25,1.25,12585.0
2012-10-15,1.25,1.25,1.25,1.25,1.25,0.0
2012-10-16,1.25,1.25,1.25,1.25,1.25,0.0
2012-10-17,1.275,1.28,1.275,1.28,1.28,8000.0
2012-10-18,1.28,1.28,1.28,1.28,1.28,0.0
2012-10-21,1.25,1.25,1.25,1.25,1.25,15047.0
2012-10-22,1.25,1.25,1.25,1.25,1.25,0.0
2012-10-23,1.25,1.25,1.25,1.25,1.25,0.0
2012-10-24,1.25,1.25,1.25,1.25,1.25,0.0
2012-10-25,1.25,1.25,1.25,1.25,1.25,0.0
2012-10-28,1.25,1.25,1.25,1.25,1.25,0.0
2012-10-29,1.25,1.25,1.25,1.25,1.25,0.0
2012-10-30,1.25,1.25,1.25,1.25,1.25,0.0
2012-10-31,1.2,1.2,1.2,1.2,1.2,8180.0
2012-11-01,1.2,1.2,1.2,1.2,1.2,0.0
2012-11-04,1.2,1.2,1.2,1.2,1.2,3.0
2012-11-05,1.2,1.2,1.2,1.2,1.2,0.0
2012-11-06,1.2,1.2,1.2,1.2,1.2,0.0
2012-11-07,1.2,1.2,1.2,1.2,1.2,0.0
2012-11-08,1.2,1.2,1.2,1.2,1.2,0.0
2012-11-11,1.2,1.2,1.2,1.2,1.2,0.0
2012-11-12,1.2,1.2,1.2,1.2,1.2,0.0
2012-11-13,1.195,1.195,1.195,1.195,1.195,20000.0
2012-11-14,1.195,1.195,1.195,1.195,1.195,0.0
2012-11-15,1.15,1.15,1.15,1.15,1.15,971.0
2012-11-18,1.15,1.15,1.15,1.15,1.15,0.0
2012-11-19,1.15,1.15,1.15,1.15,1.15,0.0
2012-11-20,1.15,1.15,1.15,1.15,1.15,0.0
2012-11-21,1.16,1.16,1.16,1.16,1.16,2000.0
2012-11-22,1.18,1.18,1.18,1.18,1.18,7000.0
2012-11-25,1.18,1.18,1.18,1.18,1.18,0.0
2012-11-26,1.18,1.18,1.18,1.18,1.18,0.0
2012-11-27,1.18,1.18,1.18,1.18,1.18,0.0
2012-11-28,1.18,1.18,1.18,1.18,1.18,0.0
2012-11-29,1.18,1.18,1.18,1.18,1.18,0.0
2012-12-02,1.15,1.15,1.15,1.15,1.15,2000.0
2012-12-03,1.17,1.17,1.15,1.15,1.15,7920.0
2012-12-04,1.15,1.15,1.15,1.15,1.15,0.0
2012-12-05,1.15,1.15,1.15,1.15,1.15,0.0
2012-12-06,1.15,1.15,1.15,1.15,1.15,0.0
2012-12-09,1.15,1.15,1.15,1.15,1.15,6000.0
2012-12-10,1.15,1.15,1.15,1.15,1.15,0.0
2012-12-11,1.24,1.24,1.24,1.24,1.24,30000.0
2012-12-12,1.24,1.24,1.24,1.24,1.24,0.0
2012-12-13,1.24,1.24,1.24,1.24,1.24,0.0
2012-12-16,1.24,1.24,1.24,1.24,1.24,0.0
2012-12-17,1.24,1.24,1.24,1.24,1.24,0.0
2012-12-18,1.24,1.24,1.24,1.24,1.24,0.0
2012-12-19,1.24,1.24,1.24,1.24,1.24,0.0
2012-12-20,1.24,1.24,1.24,1.24,1.24,0.0
2012-12-23,1.24,1.24,1.24,1.24,1.24,0.0
2012-12-26,1.24,1.24,1.24,1.24,1.24,0.0
2012-12-27,1.24,1.24,1.24,1.24,1.24,0.0
2012-12-30,1.24,1.24,1.24,1.24,1.24,0.0
2013-01-01,1.15,1.15,1.15,1.15,1.15,1109.0
2013-01-02,1.15,1.15,1.15,1.15,1.15,0.0
2013-01-03,1.15,1.15,1.15,1.15,1.15,0.0
2013-01-06,1.15,1.15,1.15,1.15,1.15,0.0
2013-01-07,1.1,1.1,1.1,1.1,1.1,10000.0
2013-01-08,1.1,1.1,1.1,1.1,1.1,0.0
2013-01-09,1.1,1.1,1.1,1.1,1.1,0.0
2013-01-10,1.15,1.15,1.15,1.15,1.15,2628.0
2013-01-13,1.16,1.16,1.16,1.16,1.16,3282.0
2013-01-14,1.16,1.16,1.16,1.16,1.16,0.0
2013-01-15,1.16,1.16,1.16,1.16,1.16,0.0
2013-01-16,1.16,1.16,1.16,1.16,1.16,0.0
2013-01-17,1.16,1.16,1.16,1.16,1.16,0.0
2013-01-20,1.16,1.16,1.16,1.16,1.16,0.0
2013-01-21,1.16,1.16,1.16,1.16,1.16,0.0
2013-01-22,,,,,,
2013-01-23,1.16,1.16,1.16,1.16,1.16,0.0
2013-01-24,1.16,1.16,1.16,1.16,1.16,0.0
2013-01-28,1.16,1.16,1.16,1.16,1.16,0.0
2013-01-29,1.15,1.15,1.15,1.15,1.15,3570.0
2013-01-30,1.15,1.15,1.15,1.15,1.15,10000.0
2013-01-31,1.15,1.15,1.15,1.15,1.15,0.0
2013-02-03,1.15,1.15,1.15,1.15,1.15,0.0
2013-02-04,1.1,1.1,1.1,1.1,1.1,5826.0
2013-02-05,1.1,1.1,1.085,1.085,1.085,7000.0
2013-02-06,1.085,1.085,1.085,1.085,1.085,0.0
2013-02-07,1.1,1.1,1.1,1.1,1.1,2000.0
2013-02-10,1.11,1.11,1.11,1.11,1.11,3000.0
2013-02-11,1.1,1.1,1.1,1.1,1.1,1000.0
2013-02-12,1.1,1.1,1.1,1.1,1.1,0.0
2013-02-13,1.1,1.1,1.1,1.1,1.1,0.0
2013-02-14,1.15,1.15,1.15,1.15,1.15,1000.0
2013-02-17,1.15,1.15,1.15,1.15,1.15,0.0
2013-02-18,1.15,1.15,1.15,1.15,1.15,0.0
2013-02-19,1.15,1.15,1.15,1.15,1.15,30000.0
2013-02-20,1.12,1.12,1.1,1.1,1.1,24174.0
2013-02-21,1.1,1.1,1.1,1.1,1.1,13074.0
2013-02-24,1.1,1.1,1.1,1.1,1.1,368.0
2013-02-25,1.1,1.1,1.1,1.1,1.1,0.0
2013-02-26,1.1,1.1,1.1,1.1,1.1,6200.0
2013-02-27,1.15,1.15,1.15,1.15,1.15,8500.0
2013-02-28,1.15,1.15,1.15,1.15,1.15,0.0
2013-03-03,1.15,1.15,1.15,1.15,1.15,0.0
2013-03-04,1.05,1.05,1.05,1.05,1.05,12500.0
2013-03-05,1.05,1.05,1.05,1.05,1.05,0.0
2013-03-06,1.05,1.05,1.05,1.05,1.05,0.0
2013-03-07,1.05,1.05,1.05,1.05,1.05,0.0
2013-03-10,1.05,1.05,1.05,1.05,1.05,2000.0
2013-03-11,1.05,1.05,1.05,1.05,1.05,0.0
2013-03-12,1.05,1.05,1.05,1.05,1.05,0.0
2013-03-13,1.02,1.02,1.02,1.02,1.02,9120.0
2013-03-14,1.02,1.02,1.02,1.02,1.02,0.0
2013-03-17,1.02,1.02,1.02,1.02,1.02,0.0
2013-03-18,1.02,1.02,1.02,1.02,1.02,0.0
2013-03-19,1.02,1.02,1.02,1.02,1.02,0.0
2013-03-20,1.1,1.1,1.1,1.1,1.1,1250.0
2013-03-21,1.1,1.1,1.1,1.1,1.1,0.0
2013-03-24,1.1,1.1,1.1,1.1,1.1,0.0
2013-03-25,1.1,1.1,1.1,1.1,1.1,0.0
2013-03-26,1.1,1.1,1.1,1.1,1.1,0.0
2013-03-27,1.1,1.1,1.1,1.1,1.1,0.0
2013-04-01,1.1,1.1,1.1,1.1,1.1,0.0
2013-04-02,1.1,1.1,1.1,1.1,1.1,0.0
2013-04-03,1.1,1.1,1.1,1.1,1.1,0.0
2013-04-04,1.1,1.1,1.1,1.1,1.1,0.0
2013-04-08,1.03,1.03,1.02,1.02,1.02,8600.0
2013-04-09,1.02,1.02,1.02,1.02,1.02,0.0
2013-04-10,1.02,1.02,1.02,1.02,1.02,0.0
2013-04-11,1.02,1.02,1.02,1.02,1.02,0.0
2013-04-12,1.02,1.02,1.02,1.02,1.02,0.0
2013-04-15,1.02,1.02,1.02,1.02,1.02,0.0
2013-04-16,1.02,1.02,1.02,1.02,1.02,0.0
2013-04-17,1.02,1.02,1.02,1.02,1.02,0.0
2013-04-18,1.02,1.02,1.02,1.02,1.02,0.0
2013-04-19,1.02,1.02,1.02,1.02,1.02,0.0
2013-04-22,1.02,1.02,1.02,1.02,1.02,0.0
2013-04-23,0.93,0.93,0.92,0.92,0.92,26000.0
2013-04-24,0.8,0.91,0.8,0.91,0.91,23251.0
2013-04-26,0.91,0.91,0.91,0.91,0.91,0.0
2013-04-29,0.8,0.8,0.74,0.74,0.74,8348.0
2013-04-30,0.74,0.74,0.74,0.74,0.74,6000.0
2013-05-01,0.75,0.8,0.75,0.8,0.8,2800.0
2013-05-02,0.765,0.765,0.76,0.76,0.76,21636.0
2013-05-03,0.76,0.76,0.76,0.76,0.76,0.0
2013-05-06,0.91,0.91,0.9,0.9,0.9,7462.0
2013-05-07,0.9,0.9,0.9,0.9,0.9,10360.0
2013-05-08,0.9,0.9,0.9,0.9,0.9,0.0
2013-05-09,0.9,0.9,0.9,0.9,0.9,0.0
2013-05-10,0.9,0.9,0.9,0.9,0.9,0.0
2013-05-13,0.9,0.9,0.9,0.9,0.9,0.0
2013-05-14,0.9,0.9,0.9,0.9,0.9,0.0
2013-05-15,0.9,0.9,0.9,0.9,0.9,0.0
2013-05-16,0.9,0.9,0.9,0.9,0.9,0.0
2013-05-17,0.9,0.9,0.9,0.9,0.9,0.0
2013-05-20,0.9,0.9,0.9,0.9,0.9,0.0
2013-05-21,0.9,0.9,0.9,0.9,0.9,0.0
2013-05-22,0.9,0.9,0.9,0.9,0.9,0.0
2013-05-23,0.9,0.9,0.9,0.9,0.9,0.0
2013-05-24,0.84,0.85,0.84,0.85,0.85,7906.0
2013-05-27,1.0,1.0,1.0,1.0,1.0,450.0
2013-05-28,1.0,1.0,1.0,1.0,1.0,450.0
2013-05-29,1.0,1.0,1.0,1.0,1.0,0.0
2013-05-30,1.0,1.0,1.0,1.0,1.0,0.0
2013-05-31,0.85,0.85,0.85,0.85,0.85,5000.0
2013-06-03,0.85,0.85,0.85,0.85,0.85,1600.0
2013-06-04,0.85,0.85,0.85,0.85,0.85,0.0
2013-06-05,0.85,0.85,0.85,0.85,0.85,10000.0
2013-06-06,0.85,0.85,0.85,0.85,0.85,0.0
2013-06-07,0.85,0.85,0.85,0.85,0.85,0.0
2013-06-11,0.82,0.82,0.82,0.82,0.82,700.0
2013-06-12,0.8,0.82,0.8,0.82,0.82,4284.0
2013-06-13,0.77,0.77,0.71,0.71,0.71,34628.0
2013-06-14,0.71,0.71,0.71,0.71,0.71,0.0
2013-06-17,0.71,0.71,0.71,0.71,0.71,0.0
2013-06-18,0.71,0.71,0.71,0.71,0.71,0.0
2013-06-19,0.71,0.71,0.71,0.71,0.71,26672.0
2013-06-20,0.71,0.71,0.71,0.71,0.71,0.0
2013-06-21,0.71,0.71,0.71,0.71,0.71,6500.0
2013-06-24,0.71,0.71,0.71,0.71,0.71,0.0
2013-06-25,0.71,0.71,0.71,0.71,0.71,0.0
2013-06-26,0.71,0.71,0.71,0.71,0.71,0.0
2013-06-27,0.71,0.71,0.71,0.71,0.71,0.0
2013-06-28,0.71,0.71,0.71,0.71,0.71,0.0
2013-07-01,0.71,0.71,0.71,0.71,0.71,0.0
2013-07-02,0.71,0.71,0.71,0.71,0.71,0.0
2013-07-03,0.71,0.71,0.71,0.71,0.71,0.0
2013-07-04,0.71,0.71,0.71,0.71,0.71,0.0
2013-07-05,0.71,0.71,0.71,0.71,0.71,0.0
2013-07-08,0.71,0.71,0.71,0.71,0.71,0.0
2013-07-09,0.71,0.71,0.71,0.71,0.71,0.0
2013-07-10,0.75,0.75,0.75,0.75,0.75,20000.0
2013-07-11,0.75,0.75,0.75,0.75,0.75,0.0
2013-07-12,0.75,0.75,0.75,0.75,0.75,0.0
2013-07-15,0.75,0.75,0.75,0.75,0.75,0.0
2013-07-16,0.75,0.75,0.75,0.75,0.75,0.0
2013-07-17,0.75,0.75,0.75,0.75,0.75,0.0
2013-07-18,0.75,0.75,0.75,0.75,0.75,0.0
2013-07-19,0.75,0.75,0.75,0.75,0.75,0.0
2013-07-22,0.75,0.75,0.75,0.75,0.75,0.0
2013-07-23,0.75,0.75,0.75,0.75,0.75,0.0
2013-07-24,0.75,0.75,0.75,0.75,0.75,0.0
2013-07-25,0.75,0.75,0.75,0.75,0.75,0.0
2013-07-26,0.75,0.75,0.75,0.75,0.75,0.0
2013-07-29,0.75,0.75,0.75,0.75,0.75,0.0
2013-07-30,0.75,0.75,0.75,0.75,0.75,0.0
2013-07-31,0.85,1.0,0.85,1.0,1.0,17550.0
2013-08-01,1.0,1.0,1.0,1.0,1.0,0.0
2013-08-02,1.1,1.1,1.1,1.1,1.1,20000.0
2013-08-05,1.1,1.1,1.1,1.1,1.1,0.0
2013-08-06,1.1,1.1,1.1,1.1,1.1,0.0
2013-08-07,1.035,1.035,1.035,1.035,1.035,1756.0
2013-08-08,1.035,1.035,1.03,1.03,1.03,18000.0
2013-08-09,1.03,1.03,1.03,1.03,1.03,0.0
2013-08-12,1.03,1.03,1.025,1.025,1.025,12360.0
2013-08-13,1.025,1.025,1.025,1.025,1.025,0.0
2013-08-14,1.0,1.0,1.0,1.0,1.0,10000.0
2013-08-15,1.0,1.0,1.0,1.0,1.0,0.0
2013-08-16,1.0,1.0,1.0,1.0,1.0,520.0
2013-08-19,1.0,1.0,1.0,1.0,1.0,0.0
2013-08-20,1.01,1.01,1.01,1.01,1.01,16755.0
2013-08-21,1.01,1.01,1.01,1.01,1.01,0.0
2013-08-22,1.01,1.01,1.01,1.01,1.01,0.0
2013-08-23,1.01,1.01,1.01,1.01,1.01,0.0
2013-08-26,1.01,1.01,1.01,1.01,1.01,0.0
2013-08-27,1.01,1.01,1.01,1.01,1.01,0.0
2013-08-28,1.01,1.01,1.01,1.01,1.01,0.0
2013-08-29,1.01,1.01,1.01,1.01,1.01,3381.0
2013-08-30,0.99,0.99,0.99,0.99,0.99,2000.0
2013-09-02,1.01,1.05,1.005,1.05,1.05,28619.0
2013-09-03,1.05,1.05,1.05,1.05,1.05,0.0
2013-09-04,1.05,1.05,1.05,1.05,1.05,0.0
2013-09-05,1.05,1.05,1.05,1.05,1.05,0.0
2013-09-06,1.05,1.05,1.05,1.05,1.05,881.0
2013-09-09,1.05,1.05,1.05,1.05,1.05,119.0
2013-09-10,1.05,1.05,1.05,1.05,1.05,0.0
2013-09-11,1.05,1.05,1.05,1.05,1.05,0.0
2013-09-12,1.05,1.05,1.05,1.05,1.05,0.0
2013-09-13,1.05,1.05,1.05,1.05,1.05,500.0
2013-09-16,1.05,1.05,1.05,1.05,1.05,0.0
2013-09-17,0.99,1.0,0.99,1.0,1.0,5445.0
2013-09-18,1.0,1.0,1.0,1.0,1.0,0.0
2013-09-19,1.0,1.0,1.0,1.0,1.0,0.0
2013-09-20,1.0,1.0,1.0,1.0,1.0,0.0
2013-09-23,0.95,0.95,0.95,0.95,0.95,3100.0
2013-09-24,0.95,0.95,0.95,0.95,0.95,0.0
2013-09-25,0.95,0.95,0.95,0.95,0.95,0.0
2013-09-26,0.95,0.95,0.95,0.95,0.95,0.0
2013-09-27,0.95,0.99,0.95,0.99,0.99,69904.0
2013-09-30,0.99,0.99,0.99,0.99,0.99,1162.0
2013-10-01,0.99,0.99,0.99,0.99,0.99,0.0
2013-10-02,0.91,0.91,0.91,0.91,0.91,6555.0
2013-10-03,0.91,0.91,0.91,0.91,0.91,0.0
2013-10-04,0.91,0.91,0.91,0.91,0.91,0.0
2013-10-06,0.91,0.91,0.91,0.91,0.91,0.0
2013-10-07,0.91,0.91,0.91,0.91,0.91,0.0
2013-10-08,0.96,0.96,0.96,0.96,0.96,1000.0
2013-10-09,0.96,0.96,0.96,0.96,0.96,0.0
2013-10-10,0.96,0.96,0.96,0.96,0.96,0.0
2013-10-13,0.96,0.96,0.96,0.96,0.96,0.0
2013-10-14,0.96,0.96,0.96,0.96,0.96,0.0
2013-10-15,0.96,0.96,0.96,0.96,0.96,0.0
2013-10-16,0.96,0.96,0.96,0.96,0.96,0.0
2013-10-17,0.96,0.96,0.96,0.96,0.96,0.0
2013-10-20,0.96,0.96,0.96,0.96,0.96,0.0
2013-10-21,0.96,0.96,0.96,0.96,0.96,0.0
2013-10-22,0.96,0.96,0.96,0.96,0.96,0.0
2013-10-23,0.96,0.96,0.96,0.96,0.96,0.0
2013-10-24,0.96,0.96,0.96,0.96,0.96,0.0
2013-10-27,0.96,0.96,0.96,0.96,0.96,0.0
2013-10-28,0.96,0.96,0.96,0.96,0.96,0.0
2013-10-29,0.98,0.98,0.875,0.875,0.875,2511.0
2013-10-30,0.875,0.875,0.875,0.875,0.875,0.0
2013-10-31,0.89,0.89,0.89,0.89,0.89,11096.0
2013-11-03,0.89,0.89,0.89,0.89,0.89,0.0
2013-11-04,0.89,0.89,0.89,0.89,0.89,0.0
2013-11-05,0.85,0.85,0.85,0.85,0.85,500.0
2013-11-06,0.85,0.85,0.85,0.85,0.85,0.0
2013-11-07,0.85,0.85,0.85,0.85,0.85,0.0
2013-11-10,0.85,0.85,0.85,0.85,0.85,0.0
2013-11-11,0.85,0.85,0.85,0.85,0.85,2000.0
2013-11-12,0.85,0.85,0.85,0.85,0.85,0.0
2013-11-13,0.85,0.85,0.85,0.85,0.85,0.0
2013-11-14,0.85,0.85,0.85,0.85,0.85,1152.0
2013-11-17,0.85,0.85,0.85,0.85,0.85,0.0
2013-11-18,0.85,0.85,0.85,0.85,0.85,0.0
2013-11-19,0.865,0.865,0.865,0.865,0.865,1000.0
2013-11-20,0.865,0.865,0.865,0.865,0.865,0.0
2013-11-21,0.8,0.8,0.8,0.8,0.8,2896.0
2013-11-24,0.8,0.8,0.8,0.8,0.8,0.0
2013-11-25,0.8,0.85,0.8,0.85,0.85,13758.0
2013-11-26,0.85,0.85,0.78,0.8,0.8,1450.0
2013-11-27,0.8,0.8,0.8,0.8,0.8,0.0
2013-11-28,0.8,0.8,0.8,0.8,0.8,0.0
2013-12-01,0.8,0.8,0.8,0.8,0.8,0.0
2013-12-02,0.8,0.8,0.8,0.8,0.8,0.0
2013-12-03,0.8,0.8,0.78,0.78,0.78,11988.0
2013-12-04,0.78,0.78,0.78,0.78,0.78,0.0
2013-12-05,0.71,0.72,0.71,0.72,0.72,13636.0
2013-12-08,0.72,0.72,0.72,0.72,0.72,0.0
2013-12-09,0.72,0.72,0.72,0.72,0.72,0.0
2013-12-10,0.72,0.72,0.72,0.72,0.72,0.0
2013-12-11,0.74,0.74,0.74,0.74,0.74,4000.0
2013-12-12,0.74,0.74,0.74,0.74,0.74,0.0
2013-12-15,0.8,0.8,0.8,0.8,0.8,4000.0
2013-12-16,0.8,0.8,0.8,0.8,0.8,1040.0
2013-12-17,0.8,0.8,0.8,0.8,0.8,0.0
2013-12-18,0.8,0.8,0.8,0.8,0.8,0.0
2013-12-19,0.8,0.8,0.8,0.8,0.8,0.0
2013-12-22,0.8,0.8,0.8,0.8,0.8,0.0
2013-12-23,0.8,0.8,0.8,0.8,0.8,0.0
2013-12-26,0.8,0.8,0.8,0.8,0.8,0.0
2013-12-29,0.8,0.8,0.8,0.8,0.8,0.0
2013-12-30,0.8,0.8,0.8,0.8,0.8,0.0
2014-01-01,0.8,0.8,0.8,0.8,0.8,0.0
2014-01-02,0.8,0.8,0.8,0.8,0.8,0.0
2014-01-05,0.8,0.8,0.8,0.8,0.8,0.0
2014-01-06,0.8,0.8,0.8,0.8,0.8,960.0
2014-01-07,0.8,0.8,0.8,0.8,0.8,1040.0
2014-01-08,0.74,0.74,0.74,0.74,0.74,2000.0
2014-01-09,0.74,0.74,0.74,0.74,0.74,0.0
2014-01-12,0.74,0.74,0.74,0.74,0.74,0.0
2014-01-13,0.74,0.74,0.74,0.74,0.74,0.0
2014-01-14,0.74,0.74,0.74,0.74,0.74,0.0
2014-01-15,0.74,0.74,0.74,0.74,0.74,0.0
2014-01-16,0.74,0.74,0.74,0.74,0.74,0.0
2014-01-19,0.74,0.74,0.74,0.74,0.74,0.0
2014-01-20,0.74,0.74,0.74,0.74,0.74,0.0
2014-01-21,0.74,0.74,0.74,0.74,0.74,0.0
2014-01-22,0.74,0.74,0.74,0.74,0.74,0.0
2014-01-23,0.74,0.74,0.74,0.74,0.74,0.0
2014-01-27,0.74,0.74,0.74,0.74,0.74,0.0
2014-01-28,0.74,0.74,0.74,0.74,0.74,0.0
2014-01-29,0.75,0.75,0.75,0.75,0.75,6000.0
2014-01-30,0.75,0.75,0.75,0.75,0.75,0.0
2014-02-02,0.75,0.75,0.75,0.75,0.75,8.0
2014-02-03,0.75,0.75,0.75,0.75,0.75,0.0
2014-02-04,0.75,0.75,0.75,0.75,0.75,0.0
2014-02-05,0.75,0.75,0.75,0.75,0.75,0.0
2014-02-06,0.75,0.75,0.75,0.75,0.75,0.0
2014-02-09,0.75,0.75,0.75,0.75,0.75,0.0
2014-02-10,0.75,0.75,0.75,0.75,0.75,0.0
2014-02-11,0.75,0.75,0.75,0.75,0.75,0.0
2014-02-12,0.75,0.75,0.75,0.75,0.75,3000.0
2014-02-13,0.8,0.8,0.8,0.8,0.8,2000.0
2014-02-16,0.8,0.8,0.8,0.8,0.8,0.0
2014-02-17,0.8,0.8,0.8,0.8,0.8,0.0
2014-02-18,0.8,0.8,0.8,0.8,0.8,0.0
2014-02-19,0.8,0.8,0.8,0.8,0.8,0.0
2014-02-20,0.8,0.8,0.8,0.8,0.8,0.0
2014-02-23,0.8,0.8,0.8,0.8,0.8,0.0
2014-02-24,0.75,0.75,0.75,0.75,0.75,3250.0
2014-02-25,0.75,0.75,0.75,0.75,0.75,0.0
2014-02-26,0.75,0.75,0.75,0.75,0.75,0.0
2014-02-27,0.79,0.79,0.79,0.79,0.79,400.0
2014-03-02,0.79,0.79,0.79,0.79,0.79,0.0
2014-03-03,0.79,0.79,0.79,0.79,0.79,0.0
2014-03-04,0.79,0.79,0.79,0.79,0.79,0.0
2014-03-05,0.79,0.79,0.79,0.79,0.79,0.0
2014-03-06,0.79,0.79,0.79,0.79,0.79,0.0
2014-03-09,0.79,0.79,0.79,0.79,0.79,0.0
2014-03-10,1.0,1.0,0.96,0.98,0.98,113246.0
2014-03-11,1.05,1.06,1.05,1.06,1.06,20000.0
2014-03-12,1.06,1.06,1.06,1.06,1.06,0.0
2014-03-13,1.06,1.06,1.06,1.06,1.06,0.0
2014-03-16,1.06,1.06,1.06,1.06,1.06,0.0
2014-03-17,1.0,1.0,1.0,1.0,1.0,10070.0
2014-03-18,1.0,1.0,1.0,1.0,1.0,0.0
2014-03-19,0.98,0.98,0.975,0.975,0.975,30000.0
2014-03-20,0.975,0.975,0.975,0.975,0.975,0.0
2014-03-23,0.975,0.975,0.975,0.975,0.975,0.0
2014-03-24,0.975,0.975,0.975,0.975,0.975,0.0
2014-03-25,0.975,0.975,0.975,0.975,0.975,0.0
2014-03-26,0.975,0.975,0.975,0.975,0.975,0.0
2014-03-27,0.975,0.975,0.975,0.975,0.975,0.0
2014-03-30,0.975,0.975,0.975,0.975,0.975,0.0
2014-03-31,0.975,0.975,0.975,0.975,0.975,0.0
2014-04-01,0.975,0.975,0.975,0.975,0.975,0.0
2014-04-02,1.02,1.03,1.02,1.03,1.03,31000.0
2014-04-03,1.0,1.0,1.0,1.0,1.0,27500.0
2014-04-07,1.0,1.0,1.0,1.0,1.0,0.0
2014-04-08,1.075,1.075,0.99,0.99,0.99,25000.0
2014-04-09,0.99,0.99,0.99,0.99,0.99,0.0
2014-04-10,0.99,0.99,0.99,0.99,0.99,0.0
2014-04-11,0.99,0.99,0.99,0.99,0.99,0.0
2014-04-14,0.96,0.96,0.96,0.96,0.96,6128.0
2014-04-15,0.975,0.975,0.975,0.975,0.975,20000.0
2014-04-16,0.975,0.975,0.975,0.975,0.975,0.0
2014-04-17,0.22,0.22,0.22,0.22,0.22,7500.0
2014-04-22,0.3,0.395,0.3,0.33,0.33,43517.0
2014-04-23,0.35,0.35,0.35,0.35,0.35,32779.0
2014-04-24,0.35,0.35,0.35,0.35,0.35,1556.0
2014-04-28,0.35,0.35,0.35,0.35,0.35,0.0
2014-04-29,0.35,0.35,0.35,0.35,0.35,0.0
2014-04-30,0.35,0.35,0.35,0.35,0.35,0.0
2014-05-01,0.35,0.35,0.35,0.35,0.35,0.0
2014-05-02,0.35,0.35,0.35,0.35,0.35,0.0
2014-05-05,0.35,0.35,0.35,0.35,0.35,0.0
2014-05-06,0.3,0.3,0.29,0.29,0.29,68750.0
2014-05-07,0.32,0.32,0.32,0.32,0.32,2500.0
2014-05-08,0.33,0.33,0.33,0.33,0.33,150.0
2014-05-09,0.33,0.33,0.33,0.33,0.33,2000.0
2014-05-12,0.33,0.35,0.33,0.35,0.35,31350.0
2014-05-13,0.375,0.375,0.375,0.375,0.375,1500.0
2014-05-14,0.35,0.35,0.35,0.35,0.35,858.0
2014-05-15,0.35,0.35,0.35,0.35,0.35,4.0
2014-05-16,0.35,0.35,0.35,0.35,0.35,2073.0
2014-05-19,0.35,0.35,0.35,0.35,0.35,0.0
2014-05-20,0.35,0.35,0.35,0.35,0.35,0.0
2014-05-21,0.35,0.35,0.35,0.35,0.35,24000.0
2014-05-22,0.35,0.35,0.35,0.35,0.35,0.0
2014-05-23,0.35,0.35,0.35,0.35,0.35,0.0
2014-05-26,0.35,0.35,0.35,0.35,0.35,0.0
2014-05-27,0.35,0.35,0.35,0.35,0.35,0.0
2014-05-28,0.34,0.34,0.34,0.34,0.34,2000.0
2014-05-29,0.34,0.35,0.34,0.35,0.35,80236.0
2014-05-30,0.35,0.35,0.35,0.35,0.35,0.0
2014-06-02,0.35,0.35,0.35,0.35,0.35,0.0
2014-06-03,0.35,0.35,0.35,0.35,0.35,2180.0
2014-06-04,0.35,0.35,0.35,0.35,0.35,38584.0
2014-06-05,0.35,0.35,0.35,0.35,0.35,0.0
2014-06-06,0.35,0.35,0.35,0.35,0.35,40000.0
2014-06-10,0.35,0.35,0.3,0.34,0.34,80808.0
2014-06-11,0.36,0.36,0.36,0.36,0.36,48599.0
2014-06-12,0.36,0.36,0.36,0.36,0.36,0.0
2014-06-13,0.35,0.35,0.35,0.35,0.35,40000.0
2014-06-16,0.35,0.35,0.35,0.35,0.35,0.0
2014-06-17,0.35,0.35,0.35,0.35,0.35,5339.0
2014-06-18,0.35,0.35,0.35,0.35,0.35,0.0
2014-06-19,0.35,0.35,0.35,0.35,0.35,24000.0
2014-06-20,0.35,0.35,0.35,0.35,0.35,5154.0
2014-06-23,0.375,0.395,0.375,0.395,0.395,44635.0
2014-06-24,0.395,0.395,0.395,0.395,0.395,0.0
2014-06-25,0.425,0.425,0.425,0.425,0.425,5500.0
2014-06-26,0.425,0.425,0.425,0.425,0.425,0.0
2014-06-27,0.35,0.38,0.325,0.325,0.325,68076.0
2014-06-30,0.325,0.325,0.325,0.325,0.325,0.0
2014-07-01,0.325,0.325,0.325,0.325,0.325,0.0
2014-07-02,0.325,0.325,0.325,0.325,0.325,0.0
2014-07-03,0.325,0.325,0.325,0.325,0.325,0.0
2014-07-04,0.325,0.325,0.325,0.325,0.325,0.0
2014-07-07,0.325,0.325,0.325,0.325,0.325,0.0
2014-07-08,0.325,0.325,0.325,0.325,0.325,0.0
2014-07-09,0.325,0.325,0.325,0.325,0.325,0.0
2014-07-10,0.325,0.325,0.325,0.325,0.325,0.0
2014-07-11,0.325,0.325,0.325,0.325,0.325,0.0
2014-07-14,0.325,0.325,0.325,0.325,0.325,0.0
2014-07-15,0.325,0.325,0.325,0.325,0.325,0.0
2014-07-16,0.325,0.325,0.325,0.325,0.325,0.0
2014-07-17,0.325,0.325,0.325,0.325,0.325,0.0
2014-07-18,0.35,0.35,0.32,0.35,0.35,76066.0
2014-07-21,0.35,0.35,0.35,0.35,0.35,0.0
2014-07-22,0.35,0.35,0.35,0.35,0.35,0.0
2014-07-23,0.34,0.34,0.3,0.3,0.3,14004.0
2014-07-24,0.3,0.3,0.3,0.3,0.3,0.0
2014-07-25,0.3,0.3,0.3,0.3,0.3,0.0
2014-07-28,0.3,0.3,0.3,0.3,0.3,0.0
2014-07-29,0.3,0.3,0.3,0.3,0.3,0.0
2014-07-30,0.3,0.3,0.3,0.3,0.3,0.0
2014-07-31,0.3,0.3,0.3,0.3,0.3,0.0
2014-08-01,0.3,0.3,0.3,0.3,0.3,0.0
2014-08-04,0.3,0.3,0.3,0.3,0.3,430.0
2014-08-05,0.3,0.32,0.3,0.32,0.32,7200.0
2014-08-06,0.32,0.32,0.32,0.32,0.32,0.0
2014-08-07,0.32,0.32,0.32,0.32,0.32,0.0
2014-08-08,0.32,0.32,0.32,0.32,0.32,0.0
2014-08-11,0.32,0.32,0.32,0.32,0.32,0.0
2014-08-12,0.32,0.32,0.32,0.32,0.32,0.0
2014-08-13,0.32,0.32,0.32,0.32,0.32,16746.0
2014-08-14,0.32,0.32,0.32,0.32,0.32,0.0
2014-08-15,0.32,0.32,0.32,0.32,0.32,0.0
2014-08-18,0.32,0.32,0.32,0.32,0.32,0.0
2014-08-19,0.3,0.3,0.3,0.3,0.3,4000.0
2014-08-20,0.3,0.3,0.3,0.3,0.3,0.0
2014-08-21,0.3,0.3,0.3,0.3,0.3,2130.0
2014-08-22,0.3,0.3,0.3,0.3,0.3,0.0
2014-08-25,0.3,0.3,0.3,0.3,0.3,0.0
2014-08-26,0.3,0.3,0.3,0.3,0.3,0.0
2014-08-27,0.3,0.3,0.3,0.3,0.3,0.0
2014-08-28,0.3,0.3,0.3,0.3,0.3,0.0
2014-08-29,0.32,0.32,0.32,0.32,0.32,20066.0
2014-09-01,0.32,0.32,0.32,0.32,0.32,0.0
2014-09-02,0.32,0.32,0.32,0.32,0.32,0.0
2014-09-03,0.32,0.32,0.32,0.32,0.32,0.0
2014-09-04,0.325,0.325,0.325,0.325,0.325,4000.0
2014-09-05,0.325,0.325,0.325,0.325,0.325,0.0
2014-09-08,0.325,0.325,0.325,0.325,0.325,0.0
2014-09-09,0.325,0.325,0.325,0.325,0.325,0.0
2014-09-10,0.325,0.325,0.325,0.325,0.325,0.0
2014-09-11,0.325,0.325,0.325,0.325,0.325,0.0
2014-09-12,0.33,0.33,0.33,0.33,0.33,22000.0
2014-09-15,0.32,0.32,0.32,0.32,0.32,8940.0
2014-09-16,0.32,0.32,0.32,0.32,0.32,0.0
2014-09-17,0.32,0.32,0.32,0.32,0.32,0.0
2014-09-18,0.32,0.32,0.32,0.32,0.32,0.0
2014-09-19,0.32,0.32,0.32,0.32,0.32,0.0
2014-09-22,0.32,0.32,0.32,0.32,0.32,0.0
2014-09-23,0.32,0.32,0.32,0.32,0.32,0.0
2014-09-24,0.32,0.32,0.32,0.32,0.32,0.0
2014-09-25,0.32,0.32,0.32,0.32,0.32,0.0
2014-09-26,0.32,0.32,0.32,0.32,0.32,0.0
2014-09-29,0.32,0.32,0.32,0.32,0.32,0.0
2014-09-30,0.32,0.32,0.32,0.32,0.32,0.0
2014-10-01,0.32,0.32,0.32,0.32,0.32,0.0
2014-10-02,0.32,0.32,0.32,0.32,0.32,0.0
2014-10-03,0.32,0.32,0.32,0.32,0.32,0.0
2014-10-05,0.32,0.32,0.32,0.32,0.32,0.0
2014-10-06,0.32,0.32,0.32,0.32,0.32,0.0
2014-10-07,0.32,0.32,0.32,0.32,0.32,0.0
2014-10-08,0.32,0.32,0.32,0.32,0.32,0.0
2014-10-09,0.32,0.32,0.32,0.32,0.32,0.0
2014-10-12,0.32,0.32,0.32,0.32,0.32,0.0
2014-10-13,0.32,0.32,0.32,0.32,0.32,0.0
2014-10-14,0.32,0.32,0.32,0.32,0.32,0.0
2014-10-15,0.32,0.32,0.32,0.32,0.32,0.0
2014-10-16,0.32,0.32,0.32,0.32,0.32,0.0
2014-10-19,0.32,0.32,0.32,0.32,0.32,0.0
2014-10-20,0.32,0.32,0.32,0.32,0.32,0.0
2014-10-21,0.32,0.32,0.32,0.32,0.32,0.0
2014-10-22,0.32,0.32,0.32,0.32,0.32,0.0
2014-10-23,0.32,0.32,0.32,0.32,0.32,0.0
2014-10-26,0.32,0.32,0.32,0.32,0.32,0.0
2014-10-27,0.32,0.32,0.32,0.32,0.32,0.0
2014-10-28,0.32,0.32,0.32,0.32,0.32,0.0
2014-10-29,0.32,0.32,0.32,0.32,0.32,0.0
2014-10-30,0.32,0.32,0.32,0.32,0.32,0.0
2014-11-02,0.32,0.32,0.32,0.32,0.32,0.0
2014-11-03,0.32,0.32,0.32,0.32,0.32,0.0
2014-11-04,0.32,0.32,0.32,0.32,0.32,0.0
2014-11-05,0.32,0.32,0.32,0.32,0.32,0.0
2014-11-06,0.32,0.32,0.32,0.32,0.32,0.0
2014-11-09,0.32,0.32,0.32,0.32,0.32,0.0
2014-11-10,0.32,0.32,0.32,0.32,0.32,30.0
2014-11-11,0.32,0.32,0.32,0.32,0.32,0.0
2014-11-12,0.32,0.32,0.32,0.32,0.32,0.0
2014-11-13,0.32,0.32,0.32,0.32,0.32,0.0
2014-11-16,0.32,0.32,0.32,0.32,0.32,0.0
2014-11-17,0.32,0.32,0.32,0.32,0.32,0.0
2014-11-18,0.32,0.32,0.32,0.32,0.32,0.0
2014-11-19,0.32,0.32,0.32,0.32,0.32,0.0
2014-11-20,0.32,0.32,0.32,0.32,0.32,0.0
2014-11-23,0.32,0.32,0.32,0.32,0.32,0.0
2014-11-24,0.32,0.32,0.32,0.32,0.32,0.0
2014-11-25,0.32,0.32,0.32,0.32,0.32,0.0
2014-11-26,0.32,0.32,0.32,0.32,0.32,0.0
2014-11-27,0.32,0.32,0.32,0.32,0.32,0.0
2014-11-30,0.32,0.32,0.32,0.32,0.32,0.0
2014-12-01,0.32,0.32,0.32,0.32,0.32,0.0
2014-12-02,0.32,0.32,0.32,0.32,0.32,0.0
2014-12-03,0.32,0.32,0.32,0.32,0.32,0.0
2014-12-04,0.32,0.32,0.32,0.32,0.32,0.0
2014-12-07,0.32,0.32,0.32,0.32,0.32,0.0
2014-12-08,0.32,0.32,0.32,0.32,0.32,0.0
2014-12-09,0.32,0.32,0.32,0.32,0.32,0.0
2014-12-10,0.32,0.32,0.32,0.32,0.32,0.0
2014-12-11,0.28,0.28,0.28,0.28,0.28,4000.0
2014-12-14,0.28,0.28,0.28,0.28,0.28,0.0
2014-12-15,0.28,0.28,0.28,0.28,0.28,0.0
2014-12-16,0.28,0.28,0.28,0.28,0.28,0.0
2014-12-17,0.28,0.28,0.28,0.28,0.28,0.0
2014-12-18,0.28,0.28,0.28,0.28,0.28,0.0
2014-12-21,0.28,0.28,0.28,0.28,0.28,0.0
2014-12-22,0.28,0.28,0.28,0.28,0.28,0.0
2014-12-23,0.275,0.275,0.275,0.275,0.275,12000.0
2014-12-28,0.275,0.275,0.275,0.275,0.275,0.0
2014-12-29,0.275,0.275,0.275,0.275,0.275,0.0
2014-12-30,0.275,0.275,0.275,0.275,0.275,0.0
2015-01-01,0.275,0.275,0.275,0.275,0.275,0.0
2015-01-04,0.275,0.275,0.275,0.275,0.275,0.0
2015-01-05,0.275,0.275,0.275,0.275,0.275,0.0
2015-01-06,0.275,0.275,0.275,0.275,0.275,0.0
2015-01-07,0.275,0.275,0.275,0.275,0.275,0.0
2015-01-08,0.275,0.275,0.275,0.275,0.275,0.0
2015-01-11,0.275,0.275,0.275,0.275,0.275,0.0
2015-01-12,0.275,0.275,0.275,0.275,0.275,0.0
2015-01-13,0.275,0.275,0.275,0.275,0.275,0.0
2015-01-14,0.275,0.275,0.275,0.275,0.275,0.0
2015-01-15,0.275,0.275,0.275,0.275,0.275,0.0
2015-01-18,0.275,0.275,0.275,0.275,0.275,0.0
2015-01-19,0.275,0.275,0.275,0.275,0.275,0.0
2015-01-20,0.275,0.275,0.275,0.275,0.275,0.0
2015-01-21,0.275,0.275,0.275,0.275,0.275,0.0
2015-01-22,0.275,0.275,0.275,0.275,0.275,0.0
2015-01-26,0.275,0.275,0.275,0.275,0.275,0.0
2015-01-27,0.275,0.275,0.275,0.275,0.275,0.0
2015-01-28,0.275,0.275,0.275,0.275,0.275,0.0
2015-01-29,0.275,0.275,0.275,0.275,0.275,0.0
2015-02-01,0.275,0.275,0.275,0.275,0.275,0.0
2015-02-02,0.275,0.275,0.275,0.275,0.275,0.0
2015-02-03,0.275,0.275,0.275,0.275,0.275,0.0
2015-02-04,0.275,0.275,0.275,0.275,0.275,0.0
2015-02-05,0.275,0.275,0.275,0.275,0.275,0.0
2015-02-08,0.275,0.275,0.275,0.275,0.275,0.0
2015-02-09,0.275,0.275,0.275,0.275,0.275,0.0
2015-02-10,0.275,0.275,0.275,0.275,0.275,0.0
2015-02-11,0.275,0.275,0.275,0.275,0.275,0.0
2015-02-12,0.275,0.275,0.275,0.275,0.275,0.0
2015-02-15,0.275,0.275,0.275,0.275,0.275,0.0
2015-02-16,0.275,0.275,0.275,0.275,0.275,0.0
2015-02-17,0.275,0.275,0.275,0.275,0.275,0.0
2015-02-18,0.275,0.275,0.275,0.275,0.275,0.0
2015-02-19,0.275,0.275,0.275,0.275,0.275,0.0
2015-02-22,0.275,0.275,0.275,0.275,0.275,0.0
2015-02-23,0.275,0.275,0.275,0.275,0.275,0.0
2015-02-24,0.275,0.275,0.275,0.275,0.275,0.0
2015-02-25,0.275,0.275,0.275,0.275,0.275,0.0
2015-02-26,0.25,0.27,0.25,0.27,0.27,15881.0
2015-03-01,0.27,0.27,0.27,0.27,0.27,0.0
2015-03-02,0.27,0.27,0.27,0.27,0.27,0.0
2015-03-03,0.27,0.27,0.27,0.27,0.27,0.0
2015-03-04,0.27,0.27,0.27,0.27,0.27,0.0
2015-03-05,0.27,0.27,0.27,0.27,0.27,0.0
2015-03-08,0.27,0.27,0.27,0.27,0.27,0.0
2015-03-09,0.27,0.27,0.27,0.27,0.27,0.0
2015-03-10,0.27,0.27,0.27,0.27,0.27,0.0
2015-03-11,0.27,0.27,0.27,0.27,0.27,0.0
2015-03-12,0.27,0.27,0.27,0.27,0.27,0.0
2015-03-15,0.27,0.27,0.27,0.27,0.27,0.0
2015-03-16,0.25,0.25,0.25,0.25,0.25,4250.0
2015-03-17,0.25,0.25,0.25,0.25,0.25,3000.0
2015-03-18,0.25,0.25,0.25,0.25,0.25,0.0
2015-03-19,0.25,0.25,0.25,0.25,0.25,0.0
2015-03-22,0.25,0.25,0.25,0.25,0.25,0.0
2015-03-23,0.25,0.25,0.25,0.25,0.25,0.0
2015-03-24,0.25,0.25,0.25,0.25,0.25,0.0
2015-03-25,0.25,0.25,0.25,0.25,0.25,0.0
2015-03-26,0.25,0.25,0.25,0.25,0.25,0.0
2015-03-29,0.25,0.25,0.25,0.25,0.25,0.0
2015-03-30,0.25,0.25,0.25,0.25,0.25,0.0
2015-03-31,0.18,0.185,0.18,0.185,0.185,6583.0
2015-04-01,0.19,0.19,0.185,0.185,0.185,34784.0
2015-04-07,0.185,0.185,0.185,0.185,0.185,4000.0
2015-04-08,0.185,0.185,0.185,0.185,0.185,0.0
2015-04-09,0.185,0.185,0.185,0.185,0.185,0.0
2015-04-10,0.185,0.185,0.185,0.185,0.185,0.0
2015-04-13,0.185,0.185,0.18,0.18,0.18,65771.0
2015-04-14,0.17,0.17,0.17,0.17,0.17,3950.0
2015-04-15,0.17,0.17,0.17,0.17,0.17,0.0
2015-04-16,0.17,0.17,0.17,0.17,0.17,0.0
2015-04-17,0.17,0.17,0.17,0.17,0.17,0.0
2015-04-20,0.17,0.17,0.17,0.17,0.17,0.0
2015-04-21,0.17,0.17,0.17,0.17,0.17,0.0
2015-04-22,0.17,0.17,0.17,0.17,0.17,0.0
2015-04-23,0.17,0.17,0.17,0.17,0.17,0.0
2015-04-24,0.17,0.17,0.17,0.17,0.17,0.0
2015-04-27,0.17,0.17,0.17,0.17,0.17,0.0
2015-04-28,0.17,0.17,0.17,0.17,0.17,0.0
2015-04-29,0.17,0.17,0.17,0.17,0.17,0.0
2015-04-30,0.17,0.17,0.17,0.17,0.17,0.0
2015-05-01,0.17,0.17,0.17,0.17,0.17,0.0
2015-05-04,0.17,0.17,0.17,0.17,0.17,0.0
2015-05-05,0.17,0.17,0.17,0.17,0.17,0.0
2015-05-06,0.17,0.17,0.17,0.17,0.17,0.0
2015-05-07,0.17,0.17,0.17,0.17,0.17,0.0
2015-05-08,0.17,0.17,0.17,0.17,0.17,0.0
2015-05-11,0.17,0.17,0.17,0.17,0.17,0.0
2015-05-12,0.17,0.17,0.17,0.17,0.17,0.0
2015-05-13,0.155,0.155,0.155,0.155,0.155,2273.0
2015-05-14,0.155,0.155,0.155,0.155,0.155,0.0
2015-05-15,0.155,0.155,0.155,0.155,0.155,0.0
2015-05-18,0.155,0.155,0.155,0.155,0.155,0.0
2015-05-19,0.155,0.155,0.155,0.155,0.155,0.0
2015-05-20,0.155,0.155,0.155,0.155,0.155,0.0
2015-05-21,0.155,0.155,0.155,0.155,0.155,0.0
2015-05-22,0.155,0.155,0.155,0.155,0.155,0.0
2015-05-25,0.155,0.155,0.155,0.155,0.155,0.0
2015-05-26,0.155,0.155,0.155,0.155,0.155,6000.0
2015-05-27,0.155,0.155,0.155,0.155,0.155,0.0
2015-05-28,0.155,0.155,0.155,0.155,0.155,79974.0
2015-05-29,0.16,0.16,0.16,0.16,0.16,3640.0
2015-06-01,0.17,0.17,0.17,0.17,0.17,2200.0
2015-06-02,0.17,0.17,0.17,0.17,0.17,0.0
2015-06-03,0.17,0.17,0.17,0.17,0.17,0.0
2015-06-04,0.17,0.17,0.17,0.17,0.17,0.0
2015-06-05,0.17,0.17,0.17,0.17,0.17,0.0
2015-06-09,0.17,0.17,0.17,0.17,0.17,0.0
2015-06-10,0.17,0.17,0.17,0.17,0.17,0.0
2015-06-11,0.17,0.17,0.17,0.17,0.17,0.0
2015-06-12,0.17,0.17,0.17,0.17,0.17,0.0
2015-06-15,0.17,0.17,0.17,0.17,0.17,0.0
2015-06-16,0.17,0.17,0.17,0.17,0.17,0.0
2015-06-17,0.17,0.17,0.17,0.17,0.17,0.0
2015-06-18,0.17,0.17,0.17,0.17,0.17,4500.0
2015-06-19,0.17,0.17,0.17,0.17,0.17,0.0
2015-06-22,0.17,0.17,0.17,0.17,0.17,0.0
2015-06-23,0.17,0.17,0.17,0.17,0.17,0.0
2015-06-24,0.17,0.17,0.17,0.17,0.17,0.0
2015-06-25,0.17,0.17,0.17,0.17,0.17,0.0
2015-06-26,0.17,0.17,0.15,0.15,0.15,15987.0
2015-06-29,0.15,0.15,0.15,0.15,0.15,0.0
2015-06-30,0.15,0.15,0.15,0.15,0.15,0.0
2015-07-01,0.15,0.15,0.15,0.15,0.15,0.0
2015-07-02,0.15,0.15,0.15,0.15,0.15,0.0
2015-07-03,0.15,0.15,0.15,0.15,0.15,1600.0
2015-07-06,0.15,0.15,0.15,0.15,0.15,0.0
2015-07-07,0.15,0.15,0.15,0.15,0.15,0.0
2015-07-08,0.15,0.15,0.15,0.15,0.15,0.0
2015-07-09,0.15,0.15,0.15,0.15,0.15,0.0
2015-07-10,0.15,0.15,0.15,0.15,0.15,0.0
2015-07-13,0.15,0.15,0.15,0.15,0.15,0.0
2015-07-14,0.17,0.17,0.17,0.17,0.17,5750.0
2015-07-15,0.17,0.17,0.17,0.17,0.17,0.0
2015-07-16,0.17,0.17,0.17,0.17,0.17,0.0
2015-07-17,0.17,0.17,0.17,0.17,0.17,0.0
2015-07-20,0.17,0.17,0.17,0.17,0.17,0.0
2015-07-21,0.17,0.17,0.17,0.17,0.17,6500.0
2015-07-22,0.17,0.17,0.17,0.17,0.17,0.0
2015-07-23,0.19,0.19,0.19,0.19,0.19,6106.0
2015-07-24,0.19,0.19,0.19,0.19,0.19,0.0
2015-07-27,0.19,0.19,0.19,0.19,0.19,0.0
2015-07-28,0.19,0.19,0.19,0.19,0.19,0.0
2015-07-29,0.2,0.2,0.195,0.195,0.195,20155.0
2015-07-30,0.195,0.195,0.195,0.195,0.195,0.0
2015-07-31,0.195,0.195,0.195,0.195,0.195,0.0
2015-08-03,0.195,0.195,0.195,0.195,0.195,0.0
2015-08-04,0.195,0.195,0.195,0.195,0.195,6065.0
2015-08-05,0.195,0.195,0.195,0.195,0.195,0.0
2015-08-06,0.195,0.195,0.195,0.195,0.195,0.0
2015-08-07,0.195,0.195,0.195,0.195,0.195,0.0
2015-08-10,0.195,0.195,0.195,0.195,0.195,0.0
2015-08-11,0.195,0.195,0.195,0.195,0.195,3715.0
2015-08-12,0.195,0.195,0.195,0.195,0.195,0.0
2015-08-13,0.195,0.195,0.195,0.195,0.195,0.0
2015-08-14,0.195,0.195,0.195,0.195,0.195,0.0
2015-08-17,0.195,0.195,0.195,0.195,0.195,0.0
2015-08-18,0.195,0.195,0.195,0.195,0.195,0.0
2015-08-19,0.195,0.195,0.195,0.195,0.195,0.0
2015-08-20,0.195,0.195,0.195,0.195,0.195,0.0
2015-08-21,0.15,0.19,0.15,0.19,0.19,12500.0
2015-08-24,0.19,0.19,0.19,0.19,0.19,0.0
2015-08-25,0.19,0.19,0.19,0.19,0.19,0.0
2015-08-26,0.19,0.19,0.19,0.19,0.19,0.0
2015-08-27,0.19,0.19,0.19,0.19,0.19,0.0
2015-08-28,0.19,0.19,0.19,0.19,0.19,0.0
2015-08-31,0.19,0.19,0.19,0.19,0.19,0.0
2015-09-01,0.18,0.19,0.18,0.19,0.19,60000.0
2015-09-02,0.19,0.19,0.19,0.19,0.19,0.0
2015-09-03,0.19,0.19,0.19,0.19,0.19,0.0
2015-09-04,0.18,0.18,0.175,0.18,0.18,28550.0
2015-09-07,0.18,0.18,0.18,0.18,0.18,0.0
2015-09-08,0.18,0.18,0.18,0.18,0.18,0.0
2015-09-09,0.18,0.18,0.18,0.18,0.18,0.0
2015-09-10,0.18,0.18,0.18,0.18,0.18,0.0
2015-09-11,0.18,0.18,0.18,0.18,0.18,0.0
2015-09-14,0.18,0.18,0.18,0.18,0.18,0.0
2015-09-15,0.18,0.18,0.18,0.18,0.18,0.0
2015-09-16,0.18,0.18,0.18,0.18,0.18,0.0
2015-09-17,0.18,0.18,0.18,0.18,0.18,3000.0
2015-09-18,0.18,0.18,0.18,0.18,0.18,85000.0
2015-09-21,0.18,0.19,0.18,0.19,0.19,6500.0
2015-09-22,0.19,0.19,0.19,0.19,0.19,0.0
2015-09-23,0.19,0.19,0.19,0.19,0.19,0.0
2015-09-24,0.17,0.17,0.16,0.16,0.16,44000.0
2015-09-25,0.16,0.16,0.16,0.16,0.16,0.0
2015-09-28,0.16,0.16,0.155,0.155,0.155,9500.0
2015-09-29,0.155,0.155,0.155,0.155,0.155,0.0
2015-09-30,0.155,0.155,0.155,0.155,0.155,0.0
2015-10-01,0.155,0.155,0.155,0.155,0.155,0.0
2015-10-02,0.155,0.155,0.155,0.155,0.155,0.0
2015-10-04,0.16,0.16,0.16,0.16,0.16,68000.0
2015-10-05,0.16,0.16,0.16,0.16,0.16,0.0
2015-10-06,0.16,0.16,0.16,0.16,0.16,0.0
2015-10-07,0.16,0.16,0.16,0.16,0.16,0.0
2015-10-08,0.16,0.16,0.16,0.16,0.16,0.0
2015-10-11,0.17,0.17,0.17,0.17,0.17,28700.0
2015-10-12,0.19,0.21,0.19,0.21,0.21,114365.0
2015-10-13,0.225,0.225,0.2,0.2,0.2,110818.0
2015-10-14,0.2,0.2,0.2,0.2,0.2,43874.0
2015-10-15,0.2,0.2,0.2,0.2,0.2,0.0
2015-10-18,0.19,0.19,0.19,0.19,0.19,126.0
2015-10-19,0.19,0.19,0.19,0.19,0.19,0.0
2015-10-20,0.19,0.19,0.19,0.19,0.19,0.0
2015-10-21,0.19,0.19,0.19,0.19,0.19,0.0
2015-10-22,0.19,0.19,0.19,0.19,0.19,0.0
2015-10-25,0.19,0.19,0.19,0.19,0.19,0.0
2015-10-26,0.19,0.19,0.19,0.19,0.19,0.0
2015-10-27,0.19,0.19,0.19,0.19,0.19,10137.0
2015-10-28,0.19,0.19,0.19,0.19,0.19,21000.0
2015-10-29,0.19,0.19,0.19,0.19,0.19,8863.0
2015-11-01,0.19,0.19,0.19,0.19,0.19,0.0
2015-11-02,0.19,0.19,0.19,0.19,0.19,0.0
2015-11-03,0.19,0.19,0.19,0.19,0.19,30000.0
2015-11-04,0.19,0.19,0.19,0.19,0.19,0.0
2015-11-05,0.18,0.18,0.18,0.18,0.18,50000.0
2015-11-08,0.18,0.18,0.18,0.18,0.18,0.0
2015-11-09,0.18,0.18,0.18,0.18,0.18,0.0
2015-11-10,0.18,0.18,0.18,0.18,0.18,0.0
2015-11-11,0.18,0.18,0.18,0.18,0.18,0.0
2015-11-12,0.18,0.18,0.18,0.18,0.18,0.0
2015-11-15,0.18,0.18,0.18,0.18,0.18,0.0
2015-11-16,0.18,0.18,0.18,0.18,0.18,0.0
2015-11-17,0.18,0.18,0.18,0.18,0.18,0.0
2015-11-18,0.18,0.18,0.18,0.18,0.18,0.0
2015-11-19,0.15,0.15,0.15,0.15,0.15,23000.0
2015-11-22,0.15,0.15,0.15,0.15,0.15,0.0
2015-11-23,0.155,0.155,0.155,0.155,0.155,21000.0
2015-11-24,0.155,0.155,0.155,0.155,0.155,0.0
2015-11-25,0.16,0.16,0.16,0.16,0.16,19956.0
2015-11-26,0.16,0.16,0.16,0.16,0.16,0.0
2015-11-29,0.16,0.16,0.16,0.16,0.16,5000.0
2015-11-30,0.16,0.16,0.16,0.16,0.16,0.0
2015-12-01,0.19,0.19,0.19,0.19,0.19,26000.0
2015-12-02,0.19,0.19,0.19,0.19,0.19,0.0
2015-12-03,0.19,0.19,0.19,0.19,0.19,0.0
2015-12-06,0.17,0.17,0.17,0.17,0.17,36570.0
2015-12-07,0.17,0.17,0.17,0.17,0.17,0.0
2015-12-08,0.17,0.17,0.17,0.17,0.17,0.0
2015-12-09,0.17,0.17,0.17,0.17,0.17,0.0
2015-12-10,0.18,0.18,0.18,0.18,0.18,18000.0
2015-12-13,0.18,0.19,0.18,0.19,0.19,51574.0
2015-12-14,0.19,0.19,0.19,0.19,0.19,50000.0
2015-12-15,0.19,0.19,0.19,0.19,0.19,0.0
2015-12-16,0.18,0.18,0.18,0.18,0.18,2000.0
2015-12-17,0.18,0.18,0.18,0.18,0.18,0.0
2015-12-20,0.19,0.19,0.19,0.19,0.19,30000.0
2015-12-21,0.19,0.19,0.19,0.19,0.19,0.0
2015-12-22,0.19,0.19,0.19,0.19,0.19,2178.0
2015-12-23,0.19,0.19,0.19,0.19,0.19,0.0
2015-12-27,0.19,0.19,0.19,0.19,0.19,0.0
2015-12-28,0.19,0.19,0.19,0.19,0.19,0.0
2015-12-29,0.19,0.19,0.19,0.19,0.19,0.0
2015-12-30,0.19,0.19,0.19,0.19,0.19,0.0
2016-01-03,0.19,0.19,0.19,0.19,0.19,0.0
2016-01-04,0.19,0.19,0.19,0.19,0.19,0.0
2016-01-05,0.19,0.19,0.19,0.19,0.19,0.0
2016-01-06,0.19,0.19,0.19,0.19,0.19,0.0
2016-01-07,0.19,0.19,0.19,0.19,0.19,0.0
2016-01-10,0.19,0.19,0.19,0.19,0.19,0.0
2016-01-11,0.22,0.22,0.22,0.22,0.22,3174.0
2016-01-12,0.22,0.22,0.22,0.22,0.22,0.0
2016-01-13,0.22,0.22,0.22,0.22,0.22,0.0
2016-01-14,0.22,0.22,0.22,0.22,0.22,0.0
2016-01-17,0.22,0.22,0.22,0.22,0.22,0.0
2016-01-18,0.22,0.22,0.22,0.22,0.22,0.0
2016-01-19,0.22,0.22,0.22,0.22,0.22,0.0
2016-01-20,0.22,0.22,0.22,0.22,0.22,0.0
2016-01-21,0.22,0.22,0.22,0.22,0.22,0.0
2016-01-24,0.22,0.22,0.22,0.22,0.22,0.0
2016-01-26,0.22,0.22,0.22,0.22,0.22,0.0
2016-01-27,0.22,0.22,0.22,0.22,0.22,0.0
2016-01-28,0.18,0.2,0.18,0.2,0.2,5336.0
2016-01-31,0.18,0.18,0.18,0.18,0.18,10129.0
2016-02-01,0.18,0.18,0.18,0.18,0.18,1826.0
2016-02-02,0.18,0.18,0.18,0.18,0.18,0.0
2016-02-03,0.18,0.18,0.18,0.18,0.18,0.0
2016-02-04,0.18,0.18,0.18,0.18,0.18,0.0
2016-02-07,0.18,0.18,0.18,0.18,0.18,0.0
2016-02-08,0.18,0.18,0.18,0.18,0.18,0.0
2016-02-09,0.18,0.18,0.18,0.18,0.18,0.0
2016-02-10,0.18,0.18,0.18,0.18,0.18,0.0
2016-02-11,0.18,0.18,0.18,0.18,0.18,0.0
2016-02-14,0.18,0.18,0.18,0.18,0.18,0.0
2016-02-15,0.18,0.18,0.18,0.18,0.18,0.0
2016-02-16,0.18,0.18,0.18,0.18,0.18,0.0
2016-02-17,0.18,0.18,0.18,0.18,0.18,0.0
2016-02-18,0.18,0.18,0.18,0.18,0.18,0.0
2016-02-21,0.18,0.18,0.18,0.18,0.18,0.0
2016-02-22,0.18,0.18,0.18,0.18,0.18,0.0
2016-02-23,0.18,0.18,0.18,0.18,0.18,0.0
2016-02-24,0.18,0.18,0.18,0.18,0.18,0.0
2016-02-25,0.18,0.18,0.18,0.18,0.18,0.0
2016-02-28,0.18,0.18,0.18,0.18,0.18,0.0
2016-02-29,0.18,0.18,0.18,0.18,0.18,0.0
2016-03-01,0.18,0.18,0.18,0.18,0.18,0.0
2016-03-02,0.18,0.18,0.18,0.18,0.18,0.0
2016-03-03,0.18,0.18,0.18,0.18,0.18,0.0
2016-03-06,0.18,0.18,0.18,0.18,0.18,0.0
2016-03-07,0.18,0.18,0.18,0.18,0.18,0.0
2016-03-08,0.18,0.18,0.18,0.18,0.18,0.0
2016-03-09,0.18,0.18,0.18,0.18,0.18,0.0
2016-03-10,0.18,0.18,0.18,0.18,0.18,0.0
2016-03-13,0.18,0.18,0.18,0.18,0.18,0.0
2016-03-14,0.21,0.21,0.2,0.2,0.2,23400.0
2016-03-15,0.2,0.2,0.2,0.2,0.2,0.0
2016-03-16,0.2,0.2,0.2,0.2,0.2,0.0
2016-03-17,0.2,0.2,0.2,0.2,0.2,53413.0
2016-03-20,0.2,0.2,0.2,0.2,0.2,0.0
2016-03-21,0.2,0.2,0.2,0.2,0.2,0.0
2016-03-22,0.2,0.2,0.2,0.2,0.2,24000.0
2016-03-23,0.2,0.2,0.2,0.2,0.2,0.0
2016-03-28,0.2,0.2,0.2,0.2,0.2,0.0
2016-03-29,0.2,0.2,0.2,0.2,0.2,18300.0
2016-03-30,0.2,0.2,0.2,0.2,0.2,30000.0
2016-03-31,0.2,0.2,0.2,0.2,0.2,0.0
2016-04-04,0.2,0.2,0.2,0.2,0.2,0.0
2016-04-05,0.2,0.2,0.2,0.2,0.2,0.0
2016-04-06,0.2,0.2,0.2,0.2,0.2,40000.0
2016-04-07,0.23,0.24,0.23,0.24,0.24,36216.0
2016-04-08,0.21,0.21,0.21,0.21,0.21,91126.0
2016-04-11,0.21,0.21,0.21,0.21,0.21,20000.0
2016-04-12,0.21,0.21,0.21,0.21,0.21,0.0
2016-04-13,0.21,0.21,0.21,0.21,0.21,0.0
2016-04-14,0.21,0.21,0.21,0.21,0.21,0.0
2016-04-15,0.21,0.21,0.21,0.21,0.21,0.0
2016-04-18,0.21,0.21,0.21,0.21,0.21,0.0
2016-04-19,0.21,0.21,0.21,0.21,0.21,0.0
2016-04-20,0.18,0.18,0.18,0.18,0.18,13085.0
2016-04-21,0.18,0.18,0.18,0.18,0.18,0.0
2016-04-22,0.24,0.24,0.24,0.24,0.24,11085.0
2016-04-26,0.2,0.2,0.2,0.2,0.2,250000.0
2016-04-27,0.2,0.2,0.2,0.2,0.2,0.0
2016-04-28,0.2,0.2,0.2,0.2,0.2,0.0
2016-04-29,0.2,0.2,0.2,0.2,0.2,0.0
2016-05-02,0.2,0.2,0.2,0.2,0.2,0.0
2016-05-03,0.2,0.2,0.2,0.2,0.2,0.0
2016-05-04,0.2,0.2,0.2,0.2,0.2,0.0
2016-05-05,0.2,0.2,0.2,0.2,0.2,0.0
2016-05-06,0.2,0.2,0.2,0.2,0.2,0.0
2016-05-09,0.2,0.2,0.2,0.2,0.2,369025.0
2016-05-10,0.2,0.2,0.2,0.2,0.2,0.0
2016-05-11,0.2,0.2,0.2,0.2,0.2,0.0
2016-05-12,0.2,0.2,0.2,0.2,0.2,0.0
2016-05-13,0.2,0.2,0.2,0.2,0.2,0.0
2016-05-16,0.2,0.2,0.2,0.2,0.2,0.0
2016-05-17,0.2,0.2,0.2,0.2,0.2,0.0
2016-05-18,0.2,0.2,0.2,0.2,0.2,0.0
2016-05-19,0.2,0.2,0.2,0.2,0.2,0.0
2016-05-20,0.2,0.2,0.2,0.2,0.2,0.0
2016-05-23,0.2,0.2,0.2,0.2,0.2,0.0
2016-05-24,0.2,0.2,0.2,0.2,0.2,0.0
2016-05-25,0.2,0.2,0.2,0.2,0.2,9800.0
2016-05-26,0.2,0.2,0.2,0.2,0.2,0.0
2016-05-27,0.2,0.2,0.2,0.2,0.2,0.0
2016-05-30,0.2,0.2,0.2,0.2,0.2,0.0
2016-05-31,0.2,0.2,0.2,0.2,0.2,0.0
2016-06-01,0.2,0.2,0.2,0.2,0.2,0.0
2016-06-02,0.2,0.2,0.2,0.2,0.2,0.0
2016-06-03,0.2,0.2,0.2,0.2,0.2,0.0
2016-06-06,0.2,0.2,0.2,0.2,0.2,0.0
2016-06-07,0.2,0.2,0.2,0.2,0.2,121175.0
2016-06-08,0.2,0.2,0.2,0.2,0.2,0.0
2016-06-09,0.2,0.2,0.2,0.2,0.2,0.0
2016-06-10,0.2,0.2,0.2,0.2,0.2,0.0
2016-06-14,0.2,0.2,0.2,0.2,0.2,0.0
2016-06-15,0.2,0.2,0.2,0.2,0.2,0.0
2016-06-16,0.2,0.2,0.2,0.2,0.2,0.0
2016-06-17,0.18,0.18,0.18,0.18,0.18,71555.0
2016-06-20,0.18,0.18,0.18,0.18,0.18,0.0
2016-06-21,0.18,0.18,0.18,0.18,0.18,0.0
2016-06-22,0.18,0.18,0.18,0.18,0.18,0.0
2016-06-23,0.18,0.18,0.18,0.18,0.18,0.0
2016-06-24,0.18,0.18,0.18,0.18,0.18,0.0
2016-06-27,0.17,0.17,0.17,0.17,0.17,2000.0
2016-06-28,0.17,0.17,0.17,0.17,0.17,0.0
2016-06-29,0.17,0.17,0.17,0.17,0.17,0.0
2016-06-30,0.17,0.17,0.17,0.17,0.17,0.0
2016-07-01,0.17,0.17,0.17,0.17,0.17,16180.0
2016-07-04,0.17,0.17,0.17,0.17,0.17,0.0
2016-07-05,0.16,0.16,0.16,0.16,0.16,6047.0
2016-07-06,0.16,0.16,0.16,0.16,0.16,0.0
2016-07-07,0.16,0.16,0.16,0.16,0.16,73820.0
2016-07-08,0.16,0.16,0.16,0.16,0.16,0.0
2016-07-11,0.17,0.17,0.17,0.17,0.17,3000.0
2016-07-12,0.17,0.17,0.17,0.17,0.17,4400.0
2016-07-13,0.18,0.18,0.18,0.18,0.18,28445.0
2016-07-14,0.18,0.18,0.18,0.18,0.18,0.0
2016-07-15,0.18,0.18,0.18,0.18,0.18,0.0
2016-07-18,0.19,0.19,0.19,0.19,0.19,20000.0
2016-07-19,0.19,0.19,0.19,0.19,0.19,1555.0
2016-07-20,0.19,0.19,0.19,0.19,0.19,0.0
2016-07-21,0.17,0.17,0.17,0.17,0.17,11292.0
2016-07-22,0.17,0.17,0.17,0.17,0.17,570.0
2016-07-25,0.175,0.175,0.175,0.175,0.175,934.0
2016-07-26,0.175,0.175,0.175,0.175,0.175,0.0
2016-07-27,0.175,0.175,0.175,0.175,0.175,0.0
2016-07-28,0.175,0.175,0.175,0.175,0.175,0.0
2016-07-29,0.19,0.19,0.19,0.19,0.19,1000.0
2016-08-01,0.19,0.19,0.19,0.19,0.19,0.0
2016-08-02,0.19,0.19,0.19,0.19,0.19,0.0
2016-08-03,0.19,0.19,0.19,0.19,0.19,0.0
2016-08-04,0.19,0.19,0.19,0.19,0.19,0.0
2016-08-05,0.19,0.19,0.19,0.19,0.19,0.0
2016-08-08,0.19,0.19,0.19,0.19,0.19,0.0
2016-08-09,0.19,0.19,0.19,0.19,0.19,0.0
2016-08-10,0.16,0.16,0.16,0.16,0.16,32339.0
2016-08-11,0.16,0.16,0.16,0.16,0.16,0.0
2016-08-12,0.16,0.16,0.16,0.16,0.16,16461.0
2016-08-15,0.18,0.18,0.18,0.18,0.18,14000.0
2016-08-16,0.18,0.18,0.18,0.18,0.18,0.0
2016-08-17,0.18,0.18,0.18,0.18,0.18,0.0
2016-08-18,0.18,0.18,0.18,0.18,0.18,0.0
2016-08-19,0.18,0.18,0.18,0.18,0.18,0.0
2016-08-22,0.18,0.18,0.18,0.18,0.18,0.0
2016-08-23,0.18,0.18,0.18,0.18,0.18,0.0
2016-08-24,0.18,0.18,0.18,0.18,0.18,0.0
2016-08-25,0.18,0.18,0.18,0.18,0.18,0.0
2016-08-26,0.18,0.18,0.18,0.18,0.18,0.0
2016-08-29,0.18,0.18,0.18,0.18,0.18,0.0
2016-08-30,0.18,0.18,0.18,0.18,0.18,0.0
2016-08-31,0.155,0.155,0.155,0.155,0.155,14752.0
2016-09-01,0.155,0.155,0.155,0.155,0.155,0.0
2016-09-02,0.155,0.155,0.155,0.155,0.155,0.0
2016-09-05,0.165,0.165,0.165,0.165,0.165,10200.0
2016-09-06,0.165,0.165,0.16,0.16,0.16,30000.0
2016-09-07,0.16,0.16,0.16,0.16,0.16,129.0
2016-09-08,0.16,0.16,0.16,0.16,0.16,0.0
2016-09-09,0.17,0.17,0.16,0.16,0.16,13800.0
2016-09-12,0.16,0.16,0.16,0.16,0.16,0.0
2016-09-13,0.16,0.16,0.16,0.16,0.16,3040.0
2016-09-14,0.16,0.16,0.16,0.16,0.16,0.0
2016-09-15,0.16,0.16,0.16,0.16,0.16,0.0
2016-09-16,0.16,0.16,0.16,0.16,0.16,0.0
2016-09-19,0.16,0.16,0.16,0.16,0.16,0.0
2016-09-20,0.16,0.16,0.16,0.16,0.16,0.0
2016-09-21,0.16,0.16,0.16,0.16,0.16,0.0
2016-09-22,0.16,0.16,0.16,0.16,0.16,0.0
2016-09-23,0.16,0.16,0.16,0.16,0.16,0.0
2016-09-26,0.18,0.18,0.18,0.18,0.18,229383.0
2016-09-27,0.18,0.18,0.18,0.18,0.18,0.0
2016-09-28,0.18,0.18,0.18,0.18,0.18,0.0
2016-09-29,0.18,0.18,0.18,0.18,0.18,0.0
2016-09-30,0.18,0.18,0.18,0.18,0.18,0.0
2016-10-02,0.18,0.18,0.18,0.18,0.18,0.0
2016-10-03,0.17,0.17,0.17,0.17,0.17,80000.0
2016-10-04,0.17,0.17,0.17,0.17,0.17,0.0
2016-10-05,0.17,0.17,0.17,0.17,0.17,0.0
2016-10-06,0.17,0.17,0.17,0.17,0.17,0.0
2016-10-09,0.17,0.17,0.17,0.17,0.17,0.0
2016-10-10,0.17,0.17,0.17,0.17,0.17,0.0
2016-10-11,0.17,0.17,0.17,0.17,0.17,0.0
2016-10-12,0.17,0.17,0.17,0.17,0.17,0.0
2016-10-13,0.17,0.17,0.17,0.17,0.17,0.0
2016-10-16,0.16,0.16,0.16,0.16,0.16,1000.0
2016-10-17,0.16,0.16,0.16,0.16,0.16,1876.0
2016-10-18,0.16,0.16,0.16,0.16,0.16,0.0
2016-10-19,0.16,0.16,0.16,0.16,0.16,0.0
2016-10-20,0.16,0.16,0.16,0.16,0.16,0.0
2016-10-23,0.16,0.16,0.16,0.16,0.16,0.0
2016-10-24,0.16,0.16,0.16,0.16,0.16,129.0
2016-10-25,0.16,0.16,0.16,0.16,0.16,0.0
2016-10-26,0.16,0.16,0.16,0.16,0.16,0.0
2016-10-27,0.16,0.16,0.16,0.16,0.16,46995.0
2016-10-30,0.16,0.16,0.16,0.16,0.16,0.0
2016-10-31,0.16,0.16,0.16,0.16,0.16,0.0
2016-11-01,0.16,0.16,0.16,0.16,0.16,0.0
2016-11-02,0.16,0.16,0.16,0.16,0.16,0.0
2016-11-03,0.15,0.15,0.15,0.15,0.15,10000.0
2016-11-06,0.15,0.15,0.15,0.15,0.15,0.0
2016-11-07,0.18,0.18,0.18,0.18,0.18,129.0
2016-11-08,0.18,0.18,0.18,0.18,0.18,0.0
2016-11-09,0.18,0.18,0.18,0.18,0.18,0.0
2016-11-10,0.18,0.18,0.18,0.18,0.18,0.0
2016-11-13,0.18,0.18,0.18,0.18,0.18,0.0
2016-11-14,0.15,0.15,0.15,0.15,0.15,1280.0
2016-11-15,0.15,0.15,0.15,0.15,0.15,0.0
2016-11-16,0.15,0.15,0.15,0.15,0.15,0.0
2016-11-17,0.15,0.15,0.15,0.15,0.15,0.0
2016-11-20,0.15,0.15,0.15,0.15,0.15,0.0
2016-11-21,0.15,0.15,0.15,0.15,0.15,0.0
2016-11-22,0.15,0.15,0.15,0.15,0.15,0.0
2016-11-23,0.15,0.15,0.15,0.15,0.15,0.0
2016-11-24,0.15,0.15,0.15,0.15,0.15,0.0
2016-11-27,0.15,0.15,0.15,0.15,0.15,0.0
2016-11-28,0.15,0.15,0.15,0.15,0.15,0.0
2016-11-29,0.15,0.15,0.15,0.15,0.15,0.0
2016-11-30,0.15,0.15,0.15,0.15,0.15,0.0
2016-12-01,0.15,0.15,0.15,0.15,0.15,0.0
2016-12-04,0.18,0.18,0.175,0.175,0.175,222799.0
2016-12-05,0.175,0.175,0.175,0.175,0.175,0.0
2016-12-06,0.175,0.175,0.175,0.175,0.175,0.0
2016-12-07,0.175,0.175,0.175,0.175,0.175,0.0
2016-12-08,0.175,0.175,0.175,0.175,0.175,970.0
2016-12-11,0.175,0.175,0.175,0.175,0.175,0.0
2016-12-12,0.175,0.175,0.175,0.175,0.175,0.0
2016-12-13,0.18,0.18,0.175,0.175,0.175,149030.0
2016-12-14,0.175,0.175,0.175,0.175,0.175,0.0
2016-12-15,0.165,0.165,0.165,0.165,0.165,640.0
2016-12-18,0.165,0.165,0.16,0.16,0.16,34517.0
2016-12-19,0.16,0.16,0.16,0.16,0.16,10860.0
2016-12-20,0.16,0.16,0.16,0.16,0.16,0.0
2016-12-21,0.16,0.16,0.16,0.16,0.16,0.0
2016-12-22,0.16,0.16,0.16,0.16,0.16,0.0
2016-12-27,0.16,0.16,0.16,0.16,0.16,0.0
2016-12-28,0.16,0.16,0.16,0.16,0.16,0.0
2016-12-29,0.16,0.16,0.16,0.16,0.16,0.0
2017-01-02,0.16,0.16,0.16,0.16,0.16,0.0
2017-01-03,0.16,0.16,0.16,0.16,0.16,0.0
2017-01-04,0.16,0.16,0.16,0.16,0.16,0.0
2017-01-05,0.16,0.16,0.16,0.16,0.16,0.0
2017-01-08,0.16,0.16,0.16,0.16,0.16,0.0
2017-01-09,0.16,0.16,0.16,0.16,0.16,3727.0
2017-01-10,0.16,0.16,0.16,0.16,0.16,0.0
2017-01-11,0.16,0.16,0.16,0.16,0.16,0.0
2017-01-12,0.16,0.16,0.16,0.16,0.16,0.0
2017-01-15,0.16,0.16,0.16,0.16,0.16,0.0
2017-01-16,0.16,0.16,0.16,0.16,0.16,0.0
2017-01-17,0.16,0.16,0.16,0.16,0.16,0.0
2017-01-18,0.16,0.16,0.16,0.16,0.16,0.0
2017-01-19,0.165,0.165,0.165,0.165,0.165,5800.0
2017-01-22,0.165,0.165,0.165,0.165,0.165,0.0
2017-01-23,0.16,0.16,0.16,0.16,0.16,500.0
2017-01-24,0.16,0.16,0.16,0.16,0.16,0.0
2017-01-26,0.16,0.16,0.16,0.16,0.16,0.0
2017-01-29,0.16,0.16,0.16,0.16,0.16,0.0
2017-01-30,0.16,0.16,0.16,0.16,0.16,0.0
2017-01-31,0.16,0.16,0.16,0.16,0.16,0.0
2017-02-01,0.16,0.16,0.16,0.16,0.16,0.0
2017-02-02,0.16,0.16,0.16,0.16,0.16,0.0
2017-02-05,0.16,0.16,0.16,0.16,0.16,3410.0
2017-02-06,0.16,0.16,0.16,0.16,0.16,0.0
2017-02-07,0.16,0.16,0.16,0.16,0.16,0.0
2017-02-08,0.16,0.16,0.16,0.16,0.16,128.0
2017-02-09,0.16,0.16,0.16,0.16,0.16,0.0
2017-02-12,0.16,0.16,0.16,0.16,0.16,0.0
2017-02-13,0.175,0.18,0.175,0.18,0.18,923647.0
2017-02-14,0.18,0.18,0.18,0.18,0.18,0.0
2017-02-15,0.18,0.18,0.18,0.18,0.18,0.0
2017-02-16,0.18,0.18,0.18,0.18,0.18,0.0
2017-02-19,0.18,0.18,0.18,0.18,0.18,0.0
2017-02-20,0.165,0.165,0.165,0.165,0.165,2.0
2017-02-21,0.165,0.165,0.165,0.165,0.165,0.0
2017-02-22,0.165,0.165,0.165,0.165,0.165,0.0
2017-02-23,0.165,0.165,0.165,0.165,0.165,0.0
2017-02-26,0.165,0.165,0.165,0.165,0.165,128.0
2017-02-27,0.165,0.165,0.165,0.165,0.165,0.0
2017-02-28,0.165,0.165,0.165,0.165,0.165,0.0
2017-03-01,0.165,0.165,0.165,0.165,0.165,0.0
2017-03-02,0.165,0.165,0.165,0.165,0.165,0.0
2017-03-05,0.165,0.165,0.165,0.165,0.165,0.0
2017-03-06,0.18,0.18,0.18,0.18,0.18,30000.0
2017-03-07,0.19,0.19,0.175,0.175,0.175,29000.0
2017-03-08,0.175,0.175,0.175,0.175,0.175,0.0
2017-03-09,0.175,0.175,0.175,0.175,0.175,0.0
2017-03-12,0.17,0.17,0.17,0.17,0.17,16000.0
2017-03-13,0.17,0.17,0.17,0.17,0.17,0.0
2017-03-14,0.17,0.17,0.17,0.17,0.17,0.0
2017-03-15,0.17,0.17,0.17,0.17,0.17,0.0
2017-03-16,0.17,0.17,0.17,0.17,0.17,0.0
2017-03-19,0.17,0.17,0.17,0.17,0.17,2.0
2017-03-20,0.17,0.17,0.17,0.17,0.17,39514.0
2017-03-21,0.17,0.17,0.17,0.17,0.17,0.0
2017-03-22,0.17,0.17,0.17,0.17,0.17,0.0
2017-03-23,0.17,0.17,0.17,0.17,0.17,14166.0
2017-03-26,0.17,0.17,0.17,0.17,0.17,0.0
2017-03-27,0.17,0.17,0.17,0.17,0.17,0.0
2017-03-28,0.17,0.17,0.17,0.17,0.17,0.0
2017-03-29,0.17,0.17,0.17,0.17,0.17,22445.0
2017-03-30,0.17,0.17,0.17,0.17,0.17,0.0
2017-04-03,0.17,0.17,0.17,0.17,0.17,0.0
2017-04-04,0.17,0.17,0.17,0.17,0.17,0.0
2017-04-05,0.17,0.17,0.17,0.17,0.17,0.0
2017-04-06,0.17,0.17,0.17,0.17,0.17,0.0
2017-04-07,0.17,0.17,0.17,0.17,0.17,0.0
2017-04-10,0.17,0.17,0.17,0.17,0.17,0.0
2017-04-11,0.165,0.165,0.165,0.165,0.165,8000.0
2017-04-12,0.165,0.165,0.165,0.165,0.165,0.0
2017-04-13,0.165,0.165,0.165,0.165,0.165,0.0
2017-04-18,0.165,0.165,0.165,0.165,0.165,0.0
2017-04-19,0.165,0.165,0.165,0.165,0.165,0.0
2017-04-20,0.165,0.165,0.165,0.165,0.165,0.0
2017-04-21,0.165,0.165,0.165,0.165,0.165,0.0
2017-04-24,0.165,0.165,0.165,0.165,0.165,0.0
2017-04-26,0.165,0.165,0.165,0.165,0.165,0.0
2017-04-27,0.165,0.165,0.165,0.165,0.165,0.0
2017-04-28,0.17,0.17,0.17,0.17,0.17,4000.0
2017-05-01,0.17,0.17,0.17,0.17,0.17,0.0
2017-05-02,0.17,0.17,0.17,0.17,0.17,0.0
2017-05-03,0.17,0.17,0.17,0.17,0.17,0.0
2017-05-04,0.17,0.17,0.17,0.17,0.17,0.0
2017-05-05,0.17,0.17,0.17,0.17,0.17,12000.0
2017-05-08,0.17,0.17,0.17,0.17,0.17,0.0
2017-05-09,0.175,0.19,0.175,0.19,0.19,28104.0
2017-05-10,0.19,0.19,0.19,0.19,0.19,0.0
2017-05-11,0.19,0.19,0.19,0.19,0.19,0.0
2017-05-12,0.19,0.19,0.19,0.19,0.19,0.0
2017-05-15,0.19,0.19,0.19,0.19,0.19,0.0
2017-05-16,0.19,0.19,0.19,0.19,0.19,0.0
2017-05-17,0.19,0.19,0.19,0.19,0.19,0.0
2017-05-18,0.19,0.19,0.19,0.19,0.19,0.0
2017-05-19,0.19,0.19,0.19,0.19,0.19,0.0
2017-05-22,0.175,0.175,0.175,0.175,0.175,50000.0
2017-05-23,0.175,0.175,0.175,0.175,0.175,400000.0
2017-05-24,0.175,0.175,0.175,0.175,0.175,0.0
2017-05-25,0.175,0.175,0.175,0.175,0.175,0.0
2017-05-26,0.175,0.175,0.175,0.175,0.175,0.0
2017-05-29,0.16,0.16,0.16,0.16,0.16,122696.0
2017-05-30,0.16,0.16,0.16,0.16,0.16,206179.0
2017-05-31,0.16,0.16,0.16,0.16,0.16,0.0
2017-06-01,0.16,0.16,0.16,0.16,0.16,0.0
2017-06-02,0.16,0.16,0.16,0.16,0.16,0.0
2017-06-05,0.16,0.16,0.16,0.16,0.16,0.0
2017-06-06,0.16,0.16,0.16,0.16,0.16,0.0
2017-06-07,0.16,0.16,0.16,0.16,0.16,0.0
2017-06-08,0.16,0.16,0.16,0.16,0.16,60606.0
2017-06-09,0.16,0.16,0.16,0.16,0.16,0.0
2017-06-13,0.16,0.16,0.16,0.16,0.16,0.0
2017-06-14,0.16,0.16,0.16,0.16,0.16,50000.0
2017-06-15,0.16,0.16,0.16,0.16,0.16,0.0
2017-06-16,0.16,0.16,0.16,0.16,0.16,6363.0
2017-06-19,0.16,0.16,0.15,0.15,0.15,15074.0
2017-06-20,0.15,0.15,0.15,0.15,0.15,0.0
2017-06-21,0.15,0.15,0.15,0.15,0.15,0.0
2017-06-22,0.15,0.15,0.15,0.15,0.15,0.0
2017-06-23,0.15,0.15,0.15,0.15,0.15,0.0
2017-06-26,0.15,0.15,0.15,0.15,0.15,0.0
2017-06-27,0.15,0.15,0.15,0.15,0.15,0.0
2017-06-28,0.15,0.15,0.15,0.15,0.15,0.0
2017-06-29,0.15,0.15,0.15,0.15,0.15,0.0
2017-06-30,0.155,0.155,0.155,0.155,0.155,1000.0
2017-07-03,0.155,0.155,0.155,0.155,0.155,0.0
2017-07-04,0.155,0.155,0.155,0.155,0.155,0.0
2017-07-05,0.155,0.155,0.155,0.155,0.155,0.0
2017-07-06,0.155,0.155,0.155,0.155,0.155,0.0
2017-07-07,0.155,0.155,0.155,0.155,0.155,0.0
2017-07-10,0.155,0.155,0.155,0.155,0.155,0.0
2017-07-11,0.155,0.155,0.155,0.155,0.155,0.0
2017-07-12,0.155,0.155,0.155,0.155,0.155,0.0
2017-07-13,0.155,0.155,0.155,0.155,0.155,0.0
2017-07-14,0.155,0.155,0.155,0.155,0.155,0.0
2017-07-17,0.155,0.155,0.155,0.155,0.155,0.0
2017-07-18,0.17,0.17,0.17,0.17,0.17,23130.0
2017-07-19,0.17,0.17,0.17,0.17,0.17,0.0
2017-07-20,0.17,0.17,0.17,0.17,0.17,0.0
2017-07-21,0.17,0.17,0.17,0.17,0.17,43445.0
2017-07-24,0.17,0.17,0.17,0.17,0.17,0.0
2017-07-25,0.17,0.17,0.17,0.17,0.17,813.0
2017-07-26,0.17,0.17,0.17,0.17,0.17,0.0
2017-07-27,0.17,0.17,0.17,0.17,0.17,0.0
2017-07-28,0.17,0.17,0.17,0.17,0.17,0.0
2017-07-31,0.17,0.17,0.17,0.17,0.17,0.0
2017-08-01,0.17,0.17,0.17,0.17,0.17,0.0
2017-08-02,0.17,0.17,0.17,0.17,0.17,0.0
2017-08-03,0.17,0.17,0.17,0.17,0.17,0.0
2017-08-04,0.17,0.17,0.17,0.17,0.17,0.0
2017-08-07,0.17,0.17,0.17,0.17,0.17,0.0
2017-08-08,0.17,0.17,0.17,0.17,0.17,0.0
2017-08-09,0.17,0.17,0.17,0.17,0.17,0.0
2017-08-10,0.17,0.17,0.17,0.17,0.17,0.0
2017-08-11,0.18,0.18,0.18,0.18,0.18,10000.0
2017-08-14,0.18,0.18,0.18,0.18,0.18,0.0
2017-08-15,0.18,0.18,0.18,0.18,0.18,0.0
2017-08-16,0.2,0.2,0.2,0.2,0.2,5000.0
2017-08-17,0.2,0.2,0.2,0.2,0.2,0.0
2017-08-18,0.2,0.2,0.2,0.2,0.2,0.0
2017-08-21,0.2,0.2,0.2,0.2,0.2,0.0
2017-08-22,0.2,0.2,0.2,0.2,0.2,0.0
2017-08-23,0.19,0.19,0.19,0.19,0.19,20000.0
2017-08-24,0.19,0.19,0.19,0.19,0.19,0.0
2017-08-25,0.19,0.19,0.19,0.19,0.19,0.0
2017-08-28,0.19,0.19,0.19,0.19,0.19,0.0
2017-08-29,0.19,0.19,0.19,0.19,0.19,0.0
2017-08-30,0.19,0.19,0.19,0.19,0.19,0.0
2017-08-31,0.19,0.19,0.19,0.19,0.19,0.0
2017-09-01,0.19,0.19,0.19,0.19,0.19,0.0
2017-09-04,0.19,0.19,0.19,0.19,0.19,0.0
2017-09-05,0.19,0.19,0.19,0.19,0.19,0.0
2017-09-06,0.19,0.19,0.19,0.19,0.19,0.0
2017-09-07,0.19,0.19,0.19,0.19,0.19,0.0
2017-09-08,0.19,0.19,0.19,0.19,0.19,0.0
2017-09-11,0.19,0.19,0.19,0.19,0.19,0.0
2017-09-12,0.19,0.19,0.19,0.19,0.19,0.0
2017-09-13,0.18,0.18,0.18,0.18,0.18,8000.0
2017-09-14,0.18,0.18,0.18,0.18,0.18,0.0
2017-09-15,0.18,0.18,0.18,0.18,0.18,0.0
2017-09-18,0.19,0.19,0.19,0.19,0.19,25000.0
2017-09-19,0.19,0.19,0.19,0.19,0.19,0.0
2017-09-20,0.19,0.19,0.19,0.19,0.19,0.0
2017-09-21,0.19,0.19,0.19,0.19,0.19,19500.0
2017-09-22,0.19,0.19,0.19,0.19,0.19,0.0
2017-09-25,0.19,0.19,0.19,0.19,0.19,0.0
2017-09-26,0.19,0.19,0.19,0.19,0.19,0.0
2017-09-27,0.19,0.19,0.19,0.19,0.19,0.0
2017-09-28,0.19,0.19,0.19,0.19,0.19,0.0
2017-09-29,0.19,0.19,0.19,0.19,0.19,0.0
2017-10-01,0.19,0.19,0.19,0.19,0.19,0.0
2017-10-02,0.19,0.19,0.19,0.19,0.19,0.0
2017-10-03,0.19,0.19,0.19,0.19,0.19,0.0
2017-10-04,0.19,0.19,0.19,0.19,0.19,0.0
2017-10-05,0.19,0.19,0.19,0.19,0.19,0.0
2017-10-08,0.2,0.2,0.2,0.2,0.2,25000.0
2017-10-09,0.2,0.2,0.2,0.2,0.2,0.0
2017-10-10,0.2,0.2,0.2,0.2,0.2,0.0
2017-10-11,0.2,0.2,0.2,0.2,0.2,0.0
2017-10-12,0.2,0.2,0.2,0.2,0.2,0.0
2017-10-15,0.2,0.2,0.2,0.2,0.2,0.0
2017-10-16,0.2,0.2,0.2,0.2,0.2,2000.0
2017-10-17,0.2,0.2,0.2,0.2,0.2,0.0
2017-10-18,0.2,0.2,0.2,0.2,0.2,0.0
2017-10-19,0.2,0.2,0.2,0.2,0.2,0.0
2017-10-22,0.2,0.2,0.2,0.2,0.2,0.0
2017-10-23,0.2,0.2,0.2,0.2,0.2,0.0
2017-10-24,0.2,0.2,0.2,0.2,0.2,0.0
2017-10-25,0.2,0.2,0.2,0.2,0.2,0.0
2017-10-26,0.2,0.2,0.2,0.2,0.2,0.0
2017-10-29,0.2,0.2,0.2,0.2,0.2,0.0
2017-10-30,0.18,0.18,0.18,0.18,0.18,22000.0
2017-10-31,0.18,0.18,0.18,0.18,0.18,0.0
2017-11-01,0.18,0.18,0.18,0.18,0.18,0.0
2017-11-02,0.18,0.18,0.18,0.18,0.18,0.0
2017-11-05,0.18,0.18,0.18,0.18,0.18,0.0
2017-11-06,0.18,0.18,0.18,0.18,0.18,0.0
2017-11-07,0.18,0.18,0.18,0.18,0.18,0.0
2017-11-08,0.18,0.18,0.18,0.18,0.18,0.0
2017-11-09,0.18,0.18,0.18,0.18,0.18,0.0
2017-11-12,0.18,0.18,0.18,0.18,0.18,0.0
2017-11-13,0.18,0.18,0.18,0.18,0.18,0.0
2017-11-14,0.18,0.18,0.18,0.18,0.18,0.0
2017-11-15,0.18,0.18,0.18,0.18,0.18,0.0
2017-11-16,0.19,0.19,0.19,0.19,0.19,28000.0
2017-11-19,0.19,0.19,0.19,0.19,0.19,34972.0
2017-11-20,0.2,0.2,0.2,0.2,0.2,28.0
2017-11-21,0.2,0.2,0.2,0.2,0.2,0.0
2017-11-22,0.2,0.2,0.2,0.2,0.2,0.0
2017-11-23,0.2,0.2,0.2,0.2,0.2,0.0
2017-11-26,0.17,0.17,0.17,0.17,0.17,8992.0
2017-11-27,0.17,0.17,0.17,0.17,0.17,0.0
2017-11-28,0.17,0.17,0.17,0.17,0.17,0.0
2017-11-29,0.17,0.17,0.17,0.17,0.17,0.0
2017-11-30,0.17,0.17,0.17,0.17,0.17,0.0
2017-12-03,0.17,0.17,0.17,0.17,0.17,0.0
2017-12-04,0.17,0.17,0.17,0.17,0.17,0.0
2017-12-05,0.2,0.2,0.2,0.2,0.2,15000.0
2017-12-06,0.2,0.2,0.175,0.175,0.175,23000.0
2017-12-07,0.175,0.175,0.175,0.175,0.175,0.0
2017-12-10,0.175,0.175,0.175,0.175,0.175,0.0
2017-12-11,0.175,0.175,0.175,0.175,0.175,0.0
2017-12-12,0.175,0.175,0.175,0.175,0.175,0.0
2017-12-13,0.175,0.175,0.175,0.175,0.175,0.0
2017-12-14,0.175,0.175,0.175,0.175,0.175,0.0
2017-12-17,0.175,0.175,0.175,0.175,0.175,0.0
2017-12-18,0.18,0.195,0.18,0.195,0.195,61400.0
2017-12-19,0.175,0.175,0.17,0.17,0.17,20180.0
2017-12-20,0.17,0.17,0.17,0.17,0.17,0.0
2017-12-21,0.17,0.17,0.17,0.17,0.17,0.0
2017-12-26,0.17,0.17,0.17,0.17,0.17,0.0
2017-12-27,0.17,0.17,0.17,0.17,0.17,0.0
2017-12-28,0.17,0.17,0.17,0.17,0.17,0.0
2018-01-01,0.195,0.195,0.19,0.19,0.19,28730.0
2018-01-02,0.19,0.19,0.19,0.19,0.19,0.0
2018-01-03,0.19,0.19,0.18,0.18,0.18,40000.0
2018-01-04,0.18,0.18,0.18,0.18,0.18,0.0
2018-01-07,0.18,0.18,0.18,0.18,0.18,0.0
2018-01-08,0.2,0.2,0.2,0.2,0.2,3786.0
2018-01-09,0.2,0.2,0.2,0.2,0.2,3786.0
2018-01-10,0.2,0.2,0.2,0.2,0.2,0.0
2018-01-11,0.2,0.2,0.2,0.2,0.2,0.0
2018-01-14,0.2,0.2,0.2,0.2,0.2,50000.0
2018-01-15,0.2,0.2,0.2,0.2,0.2,0.0
2018-01-16,0.2,0.2,0.2,0.2,0.2,0.0
2018-01-17,0.2,0.2,0.2,0.2,0.2,0.0
2018-01-18,0.2,0.2,0.2,0.2,0.2,0.0
2018-01-21,0.21,0.21,0.21,0.21,0.21,5841.0
2018-01-22,0.21,0.21,0.2,0.2,0.2,82573.0
2018-01-23,0.2,0.2,0.2,0.2,0.2,0.0
2018-01-24,0.2,0.2,0.2,0.2,0.2,4550.0
2018-01-28,0.2,0.2,0.2,0.2,0.2,2877.0
2018-01-29,0.2,0.2,0.2,0.2,0.2,0.0
2018-01-30,0.205,0.205,0.205,0.205,0.205,500.0
2018-01-31,0.205,0.205,0.205,0.205,0.205,0.0
2018-02-01,0.205,0.205,0.205,0.205,0.205,0.0
2018-02-04,0.205,0.205,0.205,0.205,0.205,0.0
2018-02-05,0.205,0.205,0.205,0.205,0.205,0.0
2018-02-06,0.205,0.205,0.205,0.205,0.205,0.0
2018-02-07,0.205,0.205,0.205,0.205,0.205,0.0
2018-02-08,0.205,0.205,0.205,0.205,0.205,0.0
2018-02-11,0.205,0.205,0.205,0.205,0.205,0.0
2018-02-12,0.205,0.205,0.205,0.205,0.205,20000.0
2018-02-13,0.205,0.205,0.205,0.205,0.205,0.0
2018-02-14,0.205,0.205,0.205,0.205,0.205,0.0
2018-02-15,0.205,0.205,0.205,0.205,0.205,0.0
2018-02-18,0.205,0.205,0.205,0.205,0.205,0.0
2018-02-19,0.205,0.205,0.205,0.205,0.205,0.0
2018-02-20,0.205,0.205,0.205,0.205,0.205,0.0
2018-02-21,0.205,0.205,0.205,0.205,0.205,0.0
2018-02-22,0.205,0.205,0.205,0.205,0.205,0.0
2018-02-25,0.205,0.205,0.205,0.205,0.205,0.0
2018-02-26,0.205,0.205,0.205,0.205,0.205,0.0
2018-02-27,0.205,0.205,0.205,0.205,0.205,0.0
2018-02-28,0.205,0.205,0.205,0.205,0.205,0.0
2018-03-01,0.205,0.205,0.205,0.205,0.205,0.0
2018-03-04,0.205,0.205,0.205,0.205,0.205,0.0
2018-03-05,0.205,0.205,0.205,0.205,0.205,0.0
2018-03-06,0.205,0.205,0.205,0.205,0.205,0.0
2018-03-07,0.205,0.205,0.205,0.205,0.205,0.0
2018-03-08,0.205,0.205,0.205,0.205,0.205,0.0
2018-03-11,0.205,0.205,0.205,0.205,0.205,0.0
2018-03-12,0.205,0.205,0.205,0.205,0.205,0.0
2018-03-13,0.205,0.205,0.205,0.205,0.205,0.0
2018-03-14,0.205,0.205,0.205,0.205,0.205,0.0
2018-03-15,0.205,0.205,0.205,0.205,0.205,0.0
2018-03-18,0.205,0.205,0.205,0.205,0.205,0.0
2018-03-19,0.205,0.205,0.205,0.205,0.205,0.0
2018-03-20,0.205,0.205,0.205,0.205,0.205,0.0
2018-03-21,0.2,0.2,0.18,0.18,0.18,40448.0
2018-03-22,0.18,0.18,0.18,0.18,0.18,0.0
2018-03-25,0.18,0.18,0.18,0.18,0.18,0.0
2018-03-26,0.18,0.18,0.18,0.18,0.18,0.0
2018-03-27,0.18,0.18,0.18,0.18,0.18,0.0
2018-03-28,0.18,0.18,0.18,0.18,0.18,0.0
2018-04-03,0.18,0.18,0.18,0.18,0.18,0.0
2018-04-04,0.18,0.18,0.18,0.18,0.18,0.0
2018-04-05,0.18,0.18,0.18,0.18,0.18,0.0
2018-04-06,0.18,0.18,0.18,0.18,0.18,0.0
2018-04-09,0.18,0.18,0.18,0.18,0.18,0.0
2018-04-10,0.18,0.18,0.18,0.18,0.18,0.0
2018-04-11,0.18,0.18,0.18,0.18,0.18,0.0
2018-04-12,0.18,0.18,0.18,0.18,0.18,0.0
2018-04-13,0.18,0.18,0.18,0.18,0.18,11200.0
2018-04-16,0.18,0.18,0.18,0.18,0.18,7400.0
2018-04-17,0.18,0.18,0.18,0.18,0.18,12000.0
2018-04-18,0.18,0.18,0.18,0.18,0.18,0.0
2018-04-19,0.18,0.18,0.18,0.18,0.18,0.0
2018-04-20,0.18,0.18,0.18,0.18,0.18,0.0
2018-04-23,0.18,0.18,0.18,0.18,0.18,0.0
2018-04-24,0.18,0.18,0.18,0.18,0.18,0.0
2018-04-26,0.18,0.18,0.18,0.18,0.18,0.0
2018-04-27,0.18,0.18,0.18,0.18,0.18,0.0
2018-04-30,0.21,0.21,0.21,0.21,0.21,2447.0
2018-05-01,0.21,0.21,0.21,0.21,0.21,0.0
2018-05-02,0.21,0.21,0.21,0.21,0.21,0.0
2018-05-03,0.21,0.21,0.21,0.21,0.21,1012.0
2018-05-04,0.21,0.21,0.21,0.21,0.21,0.0
2018-05-07,0.21,0.21,0.21,0.21,0.21,0.0
2018-05-08,0.22,0.22,0.22,0.22,0.22,45730.0
2018-05-09,0.21,0.21,0.21,0.21,0.21,284.0
2018-05-10,0.21,0.21,0.21,0.21,0.21,284.0
2018-05-11,0.21,0.21,0.21,0.21,0.21,0.0
2018-05-14,0.21,0.21,0.21,0.21,0.21,0.0
2018-05-15,0.23,0.23,0.22,0.22,0.22,52010.0
2018-05-16,0.23,0.23,0.22,0.22,0.22,52010.0
2018-05-17,0.22,0.22,0.22,0.22,0.22,0.0
2018-05-18,0.22,0.225,0.22,0.225,0.225,8667.0
2018-05-21,0.22,0.225,0.22,0.225,0.225,8667.0
2018-05-22,0.23,0.23,0.23,0.23,0.23,16333.0
2018-05-23,0.23,0.23,0.23,0.23,0.23,14700.0
2018-05-24,0.23,0.23,0.23,0.23,0.23,0.0
2018-05-25,0.23,0.23,0.23,0.23,0.23,0.0
2018-05-28,0.23,0.23,0.23,0.23,0.23,0.0
2018-05-29,0.23,0.23,0.23,0.23,0.23,0.0
2018-05-30,0.23,0.23,0.23,0.23,0.23,0.0
2018-05-31,0.225,0.23,0.225,0.23,0.23,2175.0
2018-06-01,0.23,0.23,0.23,0.23,0.23,0.0
2018-06-04,0.23,0.23,0.23,0.23,0.23,0.0
2018-06-05,0.19,0.19,0.19,0.19,0.19,2273.0
2018-06-06,0.2,0.2,0.2,0.2,0.2,1600.0
2018-06-07,0.205,0.205,0.2,0.2,0.2,4000.0
2018-06-08,0.2,0.2,0.2,0.2,0.2,0.0
2018-06-12,0.2,0.2,0.2,0.2,0.2,0.0
2018-06-13,0.2,0.2,0.2,0.2,0.2,0.0
2018-06-14,0.2,0.2,0.2,0.2,0.2,0.0
2018-06-15,0.2,0.2,0.2,0.2,0.2,0.0
2018-06-18,0.2,0.2,0.2,0.2,0.2,0.0
2018-06-19,0.2,0.2,0.2,0.2,0.2,0.0
2018-06-20,0.205,0.205,0.205,0.205,0.205,387.0
2018-06-21,0.205,0.205,0.2,0.2,0.2,2613.0
2018-06-22,0.2,0.2,0.2,0.2,0.2,0.0
2018-06-25,0.2,0.2,0.2,0.2,0.2,0.0
2018-06-26,0.2,0.2,0.2,0.2,0.2,0.0
2018-06-27,0.2,0.2,0.2,0.2,0.2,0.0
2018-06-28,0.2,0.2,0.2,0.2,0.2,0.0
2018-06-29,0.2,0.2,0.2,0.2,0.2,0.0
2018-07-02,0.2,0.2,0.2,0.2,0.2,0.0
2018-07-03,0.21,0.23,0.2,0.2,0.2,171395.0
2018-07-04,0.21,0.23,0.2,0.2,0.2,171395.0
2018-07-05,0.2,0.2,0.2,0.2,0.2,0.0
2018-07-06,0.2,0.2,0.2,0.2,0.2,0.0
2018-07-09,0.2,0.2,0.2,0.2,0.2,0.0
2018-07-10,0.2,0.2,0.2,0.2,0.2,0.0
2018-07-11,0.2,0.2,0.2,0.2,0.2,0.0
2018-07-12,0.2,0.2,0.2,0.2,0.2,0.0
2018-07-13,0.2,0.2,0.2,0.2,0.2,0.0
2018-07-16,0.22,0.225,0.22,0.225,0.225,27000.0
2018-07-17,0.225,0.225,0.225,0.225,0.225,0.0
2018-07-18,0.225,0.225,0.225,0.225,0.225,0.0
2018-07-19,0.225,0.225,0.225,0.225,0.225,0.0
2018-07-20,0.225,0.225,0.225,0.225,0.225,0.0
2018-07-23,0.225,0.225,0.225,0.225,0.225,0.0
2018-07-24,0.225,0.225,0.225,0.225,0.225,0.0
2018-07-25,0.2,0.2,0.2,0.2,0.2,2000.0
2018-07-26,0.22,0.22,0.22,0.22,0.22,418.0
2018-07-27,0.22,0.22,0.22,0.22,0.22,0.0
2018-07-30,0.22,0.22,0.22,0.22,0.22,0.0
2018-07-31,0.22,0.22,0.22,0.22,0.22,0.0
2018-08-01,0.22,0.22,0.22,0.22,0.22,0.0
2018-08-02,0.22,0.22,0.22,0.22,0.22,0.0
2018-08-03,0.22,0.22,0.22,0.22,0.22,0.0
2018-08-06,0.22,0.22,0.22,0.22,0.22,0.0
2018-08-07,0.22,0.22,0.22,0.22,0.22,0.0
2018-08-08,0.205,0.205,0.205,0.205,0.205,418.0
2018-08-09,0.205,0.205,0.205,0.205,0.205,0.0
2018-08-10,0.205,0.205,0.205,0.205,0.205,0.0
2018-08-13,0.205,0.205,0.205,0.205,0.205,0.0
2018-08-14,0.205,0.205,0.205,0.205,0.205,0.0
2018-08-15,0.205,0.205,0.205,0.205,0.205,0.0
2018-08-16,0.205,0.205,0.205,0.205,0.205,0.0
2018-08-17,0.205,0.205,0.205,0.205,0.205,0.0
2018-08-20,0.205,0.205,0.205,0.205,0.205,0.0
2018-08-21,0.205,0.205,0.205,0.205,0.205,0.0
2018-08-22,0.205,0.205,0.205,0.205,0.205,0.0
2018-08-23,0.21,0.21,0.21,0.21,0.21,6216.0
2018-08-24,0.21,0.21,0.21,0.21,0.21,0.0
2018-08-27,0.21,0.21,0.21,0.21,0.21,0.0
2018-08-28,0.21,0.21,0.21,0.21,0.21,0.0
2018-08-29,0.21,0.21,0.2,0.2,0.2,1000.0
2018-08-30,0.21,0.21,0.2,0.2,0.2,1000.0
2018-08-31,0.2,0.2,0.2,0.2,0.2,0.0
2018-09-03,0.2,0.2,0.2,0.2,0.2,0.0
2018-09-04,0.2,0.2,0.2,0.2,0.2,0.0
2018-09-05,0.2,0.2,0.2,0.2,0.2,0.0
2018-09-06,0.2,0.2,0.2,0.2,0.2,0.0
2018-09-07,0.2,0.2,0.2,0.2,0.2,0.0
2018-09-10,0.2,0.2,0.2,0.2,0.2,0.0
2018-09-11,0.2,0.2,0.2,0.2,0.2,0.0
2018-09-12,0.2,0.2,0.2,0.2,0.2,0.0
2018-09-13,0.2,0.2,0.2,0.2,0.2,0.0
2018-09-14,0.2,0.2,0.2,0.2,0.2,0.0
2018-09-17,0.2,0.2,0.2,0.2,0.2,0.0
2018-09-18,0.2,0.2,0.2,0.2,0.2,0.0
2018-09-19,0.2,0.2,0.2,0.2,0.2,0.0
2018-09-20,0.2,0.2,0.2,0.2,0.2,0.0
2018-09-21,0.2,0.2,0.2,0.2,0.2,0.0
2018-09-24,0.2,0.2,0.2,0.2,0.2,19109.0
2018-09-25,0.2,0.2,0.2,0.2,0.2,5291.0
2018-09-26,0.2,0.2,0.2,0.2,0.2,0.0
2018-09-27,0.2,0.2,0.2,0.2,0.2,17709.0
2018-09-28,0.195,0.2,0.195,0.2,0.2,1064.0
2018-10-01,0.2,0.2,0.2,0.2,0.2,13800.0
2018-10-02,0.2,0.2,0.2,0.2,0.2,0.0
2018-10-03,0.2,0.2,0.2,0.2,0.2,0.0
2018-10-04,0.2,0.2,0.2,0.2,0.2,0.0
2018-10-05,0.2,0.2,0.2,0.2,0.2,0.0
2018-10-07,0.2,0.2,0.2,0.2,0.2,0.0
2018-10-08,0.2,0.2,0.2,0.2,0.2,0.0
2018-10-09,0.2,0.2,0.2,0.2,0.2,0.0
2018-10-10,0.2,0.2,0.2,0.2,0.2,0.0
2018-10-11,0.2,0.2,0.2,0.2,0.2,0.0
2018-10-14,0.2,0.2,0.2,0.2,0.2,0.0
2018-10-15,0.2,0.2,0.2,0.2,0.2,0.0
2018-10-16,0.2,0.2,0.2,0.2,0.2,1200.0
2018-10-17,0.2,0.2,0.2,0.2,0.2,0.0
2018-10-18,0.2,0.2,0.2,0.2,0.2,500.0
2018-10-21,0.2,0.2,0.2,0.2,0.2,0.0
2018-10-22,0.2,0.2,0.2,0.2,0.2,0.0
2018-10-23,0.2,0.2,0.2,0.2,0.2,0.0
2018-10-24,0.2,0.2,0.2,0.2,0.2,0.0
2018-10-25,0.2,0.2,0.2,0.2,0.2,0.0
2018-10-28,0.2,0.2,0.2,0.2,0.2,0.0
2018-10-29,0.2,0.2,0.2,0.2,0.2,0.0
2018-10-30,0.2,0.2,0.2,0.2,0.2,0.0
2018-10-31,0.2,0.2,0.2,0.2,0.2,0.0
2018-11-01,0.2,0.2,0.2,0.2,0.2,0.0
2018-11-04,0.2,0.2,0.2,0.2,0.2,0.0
2018-11-05,0.2,0.2,0.2,0.2,0.2,0.0
2018-11-06,0.2,0.2,0.2,0.2,0.2,0.0
2018-11-07,0.2,0.2,0.2,0.2,0.2,0.0
2018-11-08,0.2,0.2,0.2,0.2,0.2,0.0
2018-11-11,0.2,0.2,0.2,0.2,0.2,0.0
2018-11-12,0.2,0.2,0.2,0.2,0.2,0.0
2018-11-13,0.2,0.2,0.2,0.2,0.2,0.0
2018-11-14,0.2,0.2,0.2,0.2,0.2,0.0
2018-11-15,0.2,0.2,0.2,0.2,0.2,0.0
2018-11-18,0.2,0.2,0.2,0.2,0.2,7036.0
2018-11-19,0.2,0.2,0.2,0.2,0.2,0.0
2018-11-20,0.2,0.2,0.2,0.2,0.2,0.0
2018-11-21,0.2,0.2,0.2,0.2,0.2,0.0
2018-11-22,0.2,0.2,0.2,0.2,0.2,0.0
2018-11-25,0.2,0.2,0.2,0.2,0.2,0.0
2018-11-26,0.2,0.2,0.2,0.2,0.2,0.0
2018-11-27,0.2,0.2,0.2,0.2,0.2,0.0
2018-11-28,0.2,0.2,0.2,0.2,0.2,0.0
2018-11-29,0.2,0.2,0.2,0.2,0.2,0.0
2018-12-02,0.2,0.2,0.2,0.2,0.2,0.0
2018-12-03,0.2,0.2,0.2,0.2,0.2,0.0
2018-12-04,0.2,0.2,0.2,0.2,0.2,0.0
2018-12-05,0.2,0.2,0.2,0.2,0.2,0.0
2018-12-06,0.2,0.2,0.2,0.2,0.2,0.0
2018-12-09,0.2,0.2,0.2,0.2,0.2,0.0
2018-12-10,0.2,0.2,0.2,0.2,0.2,0.0
2018-12-11,0.2,0.2,0.2,0.2,0.2,0.0
2018-12-12,0.2,0.2,0.2,0.2,0.2,0.0
2018-12-13,0.2,0.2,0.2,0.2,0.2,0.0
2018-12-16,0.2,0.2,0.2,0.2,0.2,0.0
2018-12-17,0.2,0.2,0.2,0.2,0.2,0.0
2018-12-18,0.2,0.2,0.2,0.2,0.2,0.0
2018-12-19,0.2,0.2,0.2,0.2,0.2,0.0
2018-12-20,0.2,0.2,0.2,0.2,0.2,0.0
2018-12-23,0.2,0.2,0.2,0.2,0.2,0.0
2018-12-26,0.2,0.2,0.2,0.2,0.2,0.0
2018-12-27,0.2,0.2,0.2,0.2,0.2,0.0
2018-12-30,0.2,0.2,0.2,0.2,0.2,0.0
2019-01-01,0.2,0.2,0.2,0.2,0.2,0.0
2019-01-02,0.2,0.2,0.2,0.2,0.2,0.0
2019-01-03,0.2,0.2,0.2,0.2,0.2,0.0
2019-01-06,0.2,0.2,0.2,0.2,0.2,0.0
2019-01-07,0.195,0.2,0.195,0.2,0.2,25000.0
2019-01-08,0.2,0.2,0.2,0.2,0.2,0.0
2019-01-09,0.2,0.2,0.2,0.2,0.2,0.0
2019-01-10,0.2,0.2,0.2,0.2,0.2,0.0
2019-01-13,0.2,0.2,0.2,0.2,0.2,0.0
2019-01-14,0.2,0.2,0.2,0.2,0.2,0.0
2019-01-15,0.2,0.2,0.2,0.2,0.2,0.0
2019-01-16,0.2,0.2,0.2,0.2,0.2,0.0
2019-01-17,0.2,0.2,0.2,0.2,0.2,0.0
2019-01-20,0.195,0.195,0.195,0.195,0.195,1284.0
2019-01-21,0.2,0.2,0.2,0.2,0.2,10742.0
2019-01-22,0.2,0.2,0.2,0.2,0.2,0.0
2019-01-23,0.2,0.2,0.2,0.2,0.2,0.0
2019-01-24,0.2,0.2,0.2,0.2,0.2,0.0
2019-01-28,0.2,0.2,0.2,0.2,0.2,10000.0
2019-01-29,0.2,0.2,0.2,0.2,0.2,0.0
2019-01-30,0.2,0.2,0.2,0.2,0.2,0.0
2019-01-31,0.2,0.2,0.2,0.2,0.2,0.0
2019-02-03,0.2,0.2,0.2,0.2,0.2,0.0
2019-02-04,0.2,0.2,0.2,0.2,0.2,0.0
2019-02-05,0.2,0.2,0.2,0.2,0.2,0.0
2019-02-06,0.2,0.2,0.2,0.2,0.2,0.0
2019-02-07,0.2,0.2,0.2,0.2,0.2,0.0
2019-02-10,0.2,0.2,0.2,0.2,0.2,0.0
2019-02-11,0.2,0.2,0.2,0.2,0.2,0.0
2019-02-12,0.2,0.2,0.18,0.18,0.18,25000.0
2019-02-13,0.18,0.18,0.18,0.18,0.18,0.0
2019-02-14,0.18,0.18,0.18,0.18,0.18,0.0
2019-02-17,0.18,0.18,0.18,0.18,0.18,0.0
2019-02-18,0.18,0.18,0.18,0.18,0.18,0.0
2019-02-19,0.18,0.18,0.18,0.18,0.18,0.0
2019-02-20,0.18,0.18,0.18,0.18,0.18,0.0
2019-02-21,0.18,0.18,0.18,0.18,0.18,0.0
2019-02-24,0.18,0.18,0.18,0.18,0.18,9611.0
2019-02-25,0.18,0.18,0.18,0.18,0.18,0.0
2019-02-26,0.18,0.18,0.18,0.18,0.18,0.0
2019-02-27,0.2,0.2,0.2,0.2,0.2,20000.0
2019-02-28,0.2,0.2,0.2,0.2,0.2,20000.0
2019-03-03,0.2,0.2,0.2,0.2,0.2,0.0
2019-03-04,0.2,0.2,0.2,0.2,0.2,0.0
2019-03-05,0.2,0.2,0.2,0.2,0.2,0.0
2019-03-06,0.2,0.2,0.2,0.2,0.2,0.0
2019-03-07,0.2,0.2,0.2,0.2,0.2,0.0
2019-03-10,0.2,0.2,0.2,0.2,0.2,0.0
2019-03-11,0.2,0.2,0.2,0.2,0.2,0.0
2019-03-12,0.2,0.2,0.2,0.2,0.2,0.0
2019-03-13,0.2,0.2,0.2,0.2,0.2,0.0
2019-03-14,0.2,0.2,0.2,0.2,0.2,0.0
2019-03-17,0.2,0.2,0.2,0.2,0.2,0.0
2019-03-18,0.2,0.2,0.2,0.2,0.2,18900.0
2019-03-19,0.2,0.2,0.2,0.2,0.2,0.0
2019-03-20,0.2,0.2,0.2,0.2,0.2,0.0
2019-03-21,0.2,0.2,0.2,0.2,0.2,0.0
2019-03-24,0.2,0.2,0.2,0.2,0.2,50000.0
2019-03-25,0.2,0.2,0.2,0.2,0.2,3777.0
2019-03-26,0.2,0.2,0.2,0.2,0.2,0.0
2019-03-27,0.2,0.2,0.2,0.2,0.2,17563.0
2019-03-28,0.2,0.2,0.2,0.2,0.2,0.0
2019-03-31,0.2,0.2,0.2,0.2,0.2,0.0
2019-04-01,0.2,0.2,0.2,0.2,0.2,0.0
2019-04-02,0.2,0.2,0.2,0.2,0.2,0.0
2019-04-03,0.205,0.21,0.205,0.21,0.21,60000.0
2019-04-04,0.21,0.21,0.21,0.21,0.21,0.0
2019-04-08,0.21,0.21,0.21,0.21,0.21,0.0
2019-04-09,0.21,0.21,0.21,0.21,0.21,0.0
2019-04-10,0.21,0.21,0.21,0.21,0.21,0.0
2019-04-11,0.21,0.21,0.21,0.21,0.21,0.0
2019-04-12,0.21,0.21,0.21,0.21,0.21,0.0
2019-04-15,0.21,0.21,0.21,0.21,0.21,0.0
2019-04-16,0.19,0.19,0.19,0.19,0.19,21968.0
2019-04-17,0.19,0.19,0.19,0.19,0.19,0.0
2019-04-18,0.19,0.19,0.19,0.19,0.19,0.0
2019-04-23,0.19,0.19,0.19,0.19,0.19,0.0
2019-04-24,0.19,0.19,0.19,0.19,0.19,0.0
2019-04-26,0.19,0.19,0.19,0.19,0.19,25704.0
2019-04-29,0.19,0.19,0.19,0.19,0.19,0.0
2019-04-30,0.19,0.19,0.19,0.19,0.19,0.0
2019-05-01,0.19,0.19,0.19,0.19,0.19,0.0
2019-05-02,0.19,0.19,0.19,0.19,0.19,0.0
2019-05-03,0.19,0.19,0.19,0.19,0.19,0.0
2019-05-06,0.19,0.19,0.19,0.19,0.19,0.0
2019-05-07,0.19,0.19,0.19,0.19,0.19,0.0
2019-05-08,0.19,0.19,0.19,0.19,0.19,0.0
2019-05-09,0.19,0.19,0.19,0.19,0.19,0.0
2019-05-10,0.19,0.19,0.19,0.19,0.19,0.0
2019-05-13,0.18,0.18,0.18,0.18,0.18,27844.0
2019-05-14,0.18,0.18,0.18,0.18,0.18,0.0
2019-05-15,0.18,0.18,0.18,0.18,0.18,0.0
